# m_chi = 0.001 [GeV]; mS = 0.2 [GeV]; gchi =0.01; gN = 0.01
# Tchi [GeV], sigma [cm^2]
9.999999999999999547e-07 1.984797042702995635e-37
1.264855216855295881e-06 1.985345587890080212e-37
1.599858719606057360e-06 1.985996460872847716e-37
2.023589647725155726e-06 1.986835352982754994e-37
2.559547922699533382e-06 1.987893799002493794e-37
3.237457542817646685e-06 1.989260973477455188e-37
4.094915062380427237e-06 1.990954877201414025e-37
5.179474679231212330e-06 1.993128329765047085e-37
6.551285568595509496e-06 1.995856493164945759e-37
8.286427728546842542e-06 1.999298052741582747e-37
1.048113134154685250e-05 2.003702542063652736e-37
1.325711365590110898e-05 2.009279429303343466e-37
1.676832936811009972e-05 2.016316188904954462e-37
2.120950887920192640e-05 2.025279033362246894e-37
2.682695795279727390e-05 2.036698191363154902e-37
3.393221771895329857e-05 2.051211990060827030e-37
4.291934260128778017e-05 2.069679835875696819e-37
5.428675439323859403e-05 2.093286546513238937e-37
6.866488450042998925e-05 2.123550001794951803e-37
8.685113737513520580e-05 2.162363342780939535e-37
1.098541141987558346e-04 2.212419695666879680e-37
1.389495494373137348e-04 2.277255125206665567e-37
1.757510624854793067e-04 2.361630300441192119e-37
2.222996482526195465e-04 2.472149683392468948e-37
2.811768697974231118e-04 2.618090160590062885e-37
3.556480306223128661e-04 2.812542972143422366e-37
4.498432668969443876e-04 3.074168379798771259e-37
5.689866029018298636e-04 3.430111520006356594e-37
7.196856730011521675e-04 3.920498664963293979e-37
9.102981779915217267e-04 4.604776418696049741e-37
1.151395399326448146e-03 5.572688158210054936e-37
1.456348477501244378e-03 6.960471468585136024e-37
1.842069969326716331e-03 8.976340423404681725e-37
2.329951810515372077e-03 1.194157272966675587e-36
2.947051702551809708e-03 1.635259125804060949e-36
3.727593720314941773e-03 2.297910665104217842e-36
4.714866363457394238e-03 3.301292210876096112e-36
5.963623316594642357e-03 4.829367959564694075e-36
7.543120063354623143e-03 7.163208800851349415e-36
9.540954763499944619e-03 1.072498110302446583e-35
1.206792640639328847e-02 1.613038405821218200e-35
1.526417967175233356e-02 2.422686533816822253e-35
1.930697728883249559e-02 3.606492090787257440e-35
2.442053094548649744e-02 5.266941247384218220e-35
3.088843596477484910e-02 7.437087919160612206e-35
3.906939937054620948e-02 9.946785743550865038e-35
4.941713361323837872e-02 1.225017770861918803e-34
6.250551925273975518e-02 1.340258945738403767e-34
7.906043210907701124e-02 1.253632634562328917e-34
1.000000000000000056e-01 9.781780278247035919e-35
1.258925411794167282e-01 6.196863101927112469e-35
1.313310289679490150e-01 5.698002078491320642e-35
1.370044564053987113e-01 5.239068457231094960e-35
1.429229727539835237e-01 4.817074094803883719e-35
1.490971657184064214e-01 4.428860436737315065e-35
1.555380803863272154e-01 4.071877875315852693e-35
1.622572389870521326e-01 3.743601344073360985e-35
1.692666615037875799e-01 3.441701021495417482e-35
1.765788871763319112e-01 3.164092515239539715e-35
1.842069969326715906e-01 2.908820848309384907e-35
1.921646367896096275e-01 2.674064677746020467e-35
2.004660422642884077e-01 2.458254757737950588e-35
2.091260638402766547e-01 2.259798265216077222e-35
2.181601935337768583e-01 2.077306005492267661e-35
2.275845926074788750e-01 1.909560518999872562e-35
2.374161204816356840e-01 1.755288322323099930e-35
2.476723648940822031e-01 1.613501927629490478e-35
2.583716733631498119e-01 1.483133456119376873e-35
2.695331860097615051e-01 1.363278721393835432e-35
2.811768697974230680e-01 1.253085706971669679e-35
2.933235542513630834e-01 1.151781436837714690e-35
3.059949687207196289e-01 1.058669432078419828e-35
3.192137812504330929e-01 9.730679685014713596e-36
3.330036391323831224e-01 8.943820351869377086e-36
3.473892112083115657e-01 8.220357337997700755e-36
3.623962320002086512e-01 7.555531144467300066e-36
3.780515477471075858e-01 6.944273562689966049e-36
3.943831644306425854e-01 6.382405367014183456e-36
4.114202978752842244e-01 5.865977150227845553e-36
4.291934260128778544e-01 5.391329497511411016e-36
4.477343434049798621e-01 4.954990041475223975e-36
4.670762181205299624e-01 4.553936120999170769e-36
4.872536510706058088e-01 4.185338973385504325e-36
5.083027379064073425e-01 3.846530700185305348e-36
5.302611335911987522e-01 3.535160651226101596e-36
5.531681197617227541e-01 3.248907470301217385e-36
5.770646749995906877e-01 2.985848914082967563e-36
6.019935481383572595e-01 2.744075006270978168e-36
6.279993347374204227e-01 2.521829224985493835e-36
6.551285568595509590e-01 2.317647890616861281e-36
6.834297462947672708e-01 2.129925987455418199e-36
7.129535313794351792e-01 1.957422647736691354e-36
7.437527275659046033e-01 1.798856089015661821e-36
7.758824319047037399e-01 1.653135130048286040e-36
8.094001216083124284e-01 1.519217137852232976e-36
8.443657568728348828e-01 1.396147278271694355e-36
8.808418881415118751e-01 1.283031281118481040e-36
9.188937680019572118e-01 1.179080812596786038e-36
9.585894679172923816e-01 1.083555275782013428e-36
1.000000000000000000e+00 9.957448455168951634e-37
