# m_chi = 0.001 [GeV]; mS = 0.3 [GeV]; gchi =0.01; gN = 0.01
# Tchi [GeV], sigma [cm^2]
9.999999999999999547e-07 3.920660427833621374e-38
1.264855216855295881e-06 3.921645156929275208e-38
1.599858719606057360e-06 3.922973230457619986e-38
2.023589647725155726e-06 3.924624758444063040e-38
2.559547922699533382e-06 3.926740718036993545e-38
3.237457542817646685e-06 3.929399529656787600e-38
4.094915062380427237e-06 3.932743856075911394e-38
5.179474679231212330e-06 3.937057677441561769e-38
6.551285568595509496e-06 3.942395205214049704e-38
8.286427728546842542e-06 3.949262078741226723e-38
1.048113134154685250e-05 3.957939579734606351e-38
1.325711365590110898e-05 3.968920310140116247e-38
1.676832936811009972e-05 3.982855031539806898e-38
2.120950887920192640e-05 4.000600841898111563e-38
2.682695795279727390e-05 4.023119946386785349e-38
3.393221771895329857e-05 4.051715091667998358e-38
4.291934260128778017e-05 4.088266498962162323e-38
5.428675439323859403e-05 4.134943405996670878e-38
6.866488450042998925e-05 4.194703335510862444e-38
8.685113737513520580e-05 4.271356512455953500e-38
1.098541141987558346e-04 4.370292673839558884e-38
1.389495494373137348e-04 4.498320002206123764e-38
1.757510624854793067e-04 4.665042014648890982e-38
2.222996482526195465e-04 4.883390409932098238e-38
2.811768697974231118e-04 5.171851290827023999e-38
3.556480306223128661e-04 5.555929710326528954e-38
4.498432668969443876e-04 6.072776895369498920e-38
5.689866029018298636e-04 6.776169326113185607e-38
7.196856730011521675e-04 7.745137130991147192e-38
9.102981779915217267e-04 9.097486111066631709e-38
1.151395399326448146e-03 1.101043778593210848e-37
1.456348477501244378e-03 1.375369286152368508e-37
1.842069969326716331e-03 1.773982070551404678e-37
2.329951810515372077e-03 2.360547506581866734e-37
2.947051702551809708e-03 3.233517449851285457e-37
3.727593720314941773e-03 4.546096209302295642e-37
4.714866363457394238e-03 6.536100747963057527e-37
5.963623316594642357e-03 9.572496860983538850e-37
7.543120063354623143e-03 1.422419806480496434e-36
9.540954763499944619e-03 2.135609249195760020e-36
1.206792640639328847e-02 3.225763244996967847e-36
1.526417967175233356e-02 4.877316149328722024e-36
1.930697728883249559e-02 7.335678052807767468e-36
2.442053094548649744e-02 1.088297374273268179e-35
3.088843596477484910e-02 1.573475809460744358e-35
3.906939937054620948e-02 2.178418396327716582e-35
4.941713361323837872e-02 2.815232787072969384e-35
6.250551925273975518e-02 3.277278926609889803e-35
7.906043210907701124e-02 3.287546052602046396e-35
1.000000000000000056e-01 2.723992172060236083e-35
1.258925411794167282e-01 1.725690929008899622e-35
1.313310289679490150e-01 1.586752162751462687e-35
1.370044564053987113e-01 1.458968941993051094e-35
1.429229727539835237e-01 1.341443049516197437e-35
1.490971657184064214e-01 1.233329946195991365e-35
1.555380803863272154e-01 1.133924692311589207e-35
1.622572389870521326e-01 1.042508209247400915e-35
1.692666615037875799e-01 9.584362304464906610e-36
1.765788871763319112e-01 8.811201763388996228e-36
1.842069969326715906e-01 8.100465392325474663e-36
1.921646367896096275e-01 7.446755185298702673e-36
2.004660422642884077e-01 6.845662729511387797e-36
2.091260638402766547e-01 6.293034106979922388e-36
2.181601935337768583e-01 5.784806966044810266e-36
2.275845926074788750e-01 5.317667861953266687e-36
2.374161204816356840e-01 4.888101916836536967e-36
2.476723648940822031e-01 4.493245261519679734e-36
2.583716733631498119e-01 4.130154454667194322e-36
2.695331860097615051e-01 3.796402941394103330e-36
2.811768697974230680e-01 3.489520645206595256e-36
2.933235542513630834e-01 3.207470377515582794e-36
3.059949687207196289e-01 2.948134927076783134e-36
3.192137812504330929e-01 2.709759297761033520e-36
3.330036391323831224e-01 2.490630320056736475e-36
3.473892112083115657e-01 2.289205099521066337e-36
3.623962320002086512e-01 2.104013472210040197e-36
3.780515477471075858e-01 1.933792423064104415e-36
3.943831644306425854e-01 1.777333485301213409e-36
4.114202978752842244e-01 1.633533664314645144e-36
4.291934260128778544e-01 1.501353961849015576e-36
4.477343434049798621e-01 1.379852659452671689e-36
4.670762181205299624e-01 1.268169182865875189e-36
4.872536510706058088e-01 1.165508376024515738e-36
5.083027379064073425e-01 1.071162351222156462e-36
5.302611335911987522e-01 9.844505135977245615e-37
5.531681197617227541e-01 9.047439678781424907e-37
5.770646749995906877e-01 8.314886430729577406e-37
6.019935481383572595e-01 7.641493437584008297e-37
6.279993347374204227e-01 7.022754223344387419e-37
6.551285568595509590e-01 6.454025145434213176e-37
6.834297462947672708e-01 5.931291444325948944e-37
7.129535313794351792e-01 5.450867102290914405e-37
7.437527275659046033e-01 5.009392680111243894e-37
7.758824319047037399e-01 4.603575440497525100e-37
8.094001216083124284e-01 4.230654790495708583e-37
8.443657568728348828e-01 3.887911918671480106e-37
8.808418881415118751e-01 3.572915130494447427e-37
9.188937680019572118e-01 3.283498542954472804e-37
9.585894679172923816e-01 3.017405545743068092e-37
1.000000000000000000e+00 2.772926266824726812e-37
