# m_chi = 0.15 [GeV]; mS = 0.3 [GeV]; gchi =0.01; gN = 0.01
# Tchi [GeV], sigma [cm^2]
9.999999999999999547e-07 8.639852773278368216e-34
1.264855216855295881e-06 8.639790599564869374e-34
1.599858719606057360e-06 8.639647581238496350e-34
2.023589647725155726e-06 8.639456264225184176e-34
2.559547922699533382e-06 8.639303284218325738e-34
3.237457542817646685e-06 8.638961226678850117e-34
4.094915062380427237e-06 8.638570838114122277e-34
5.179474679231212330e-06 8.638279734611132377e-34
6.551285568595509496e-06 8.637766317264667504e-34
8.286427728546842542e-06 8.637090930232364773e-34
1.048113134154685250e-05 8.636156665704140472e-34
1.325711365590110898e-05 8.635132393015755816e-34
1.676832936811009972e-05 8.633805304726024491e-34
2.120950887920192640e-05 8.632090671090899713e-34
2.682695795279727390e-05 8.629963439739392104e-34
3.393221771895329857e-05 8.627327816856151800e-34
4.291934260128778017e-05 8.623847041219307131e-34
5.428675439323859403e-05 8.619522211862288148e-34
6.866488450042998925e-05 8.614031409828098858e-34
8.685113737513520580e-05 8.607183747562338707e-34
1.098541141987558346e-04 8.598467704128482919e-34
1.389495494373137348e-04 8.587496058121209613e-34
1.757510624854793067e-04 8.573482351643272344e-34
2.222996482526195465e-04 8.556025679271932375e-34
2.811768697974231118e-04 8.533811200433006748e-34
3.556480306223128661e-04 8.505956329629909425e-34
4.498432668969443876e-04 8.470650907972554255e-34
5.689866029018298636e-04 8.426468963404763076e-34
7.196856730011521675e-04 8.370983168168579165e-34
9.102981779915217267e-04 8.301308361110662470e-34
1.151395399326448146e-03 8.214025501139568680e-34
1.456348477501244378e-03 8.105398192747496447e-34
1.842069969326716331e-03 7.970202825735840504e-34
2.329951810515372077e-03 7.803133984486002456e-34
2.947051702551809708e-03 7.597560183977748199e-34
3.727593720314941773e-03 7.346582824981307602e-34
4.714866363457394238e-03 7.042999635920777020e-34
5.963623316594642357e-03 6.680405575339698063e-34
7.543120063354623143e-03 6.253512679399628449e-34
9.540954763499944619e-03 5.760334787662572532e-34
1.206792640639328847e-02 5.203994333142924040e-34
1.526417967175233356e-02 4.594573305761122651e-34
1.930697728883249559e-02 3.951048422217396940e-34
2.442053094548649744e-02 3.301080541393729681e-34
3.088843596477484910e-02 2.678209104391782947e-34
3.906939937054620948e-02 2.066886519957211289e-34
4.941713361323837872e-02 1.585694520175474361e-34
6.250551925273975518e-02 1.208391126377752331e-34
7.906043210907701124e-02 9.136394114859580996e-35
1.000000000000000056e-01 6.845142223289845493e-35
1.258925411794167282e-01 5.106668462200100672e-35
1.313310289679490150e-01 4.833504148628354177e-35
1.370044564053987113e-01 4.573152352896809745e-35
1.429229727539835237e-01 4.325264692756765159e-35
1.490971657184064214e-01 4.089135530817743082e-35
1.555380803863272154e-01 3.864416930633431125e-35
1.622572389870521326e-01 3.650542790650985634e-35
1.692666615037875799e-01 3.447081037826272043e-35
1.765788871763319112e-01 3.253613376812062285e-35
1.842069969326715906e-01 3.069781323782879807e-35
1.921646367896096275e-01 2.895062610616065925e-35
2.004660422642884077e-01 2.729160348879442062e-35
2.091260638402766547e-01 2.571621137488126214e-35
2.181601935337768583e-01 2.422172459864178210e-35
2.275845926074788750e-01 2.280398739317542774e-35
2.374161204816356840e-01 2.145958479219525884e-35
2.476723648940822031e-01 2.018572017332328733e-35
2.583716733631498119e-01 1.897896576403713376e-35
2.695331860097615051e-01 1.783659733014056899e-35
2.811768697974230680e-01 1.675549195647130216e-35
2.933235542513630834e-01 1.573266641741428943e-35
3.059949687207196289e-01 1.476579054653045360e-35
3.192137812504330929e-01 1.385211473080931139e-35
3.330036391323831224e-01 1.298929055231937959e-35
3.473892112083115657e-01 1.217475890392402343e-35
3.623962320002086512e-01 1.140611483403662814e-35
3.780515477471075858e-01 1.068140662976882602e-35
3.943831644306425854e-01 9.998366398021242522e-36
4.114202978752842244e-01 9.354698984818203026e-36
4.291934260128778544e-01 8.748808007985465264e-36
4.477343434049798621e-01 8.178404205371414068e-36
4.670762181205299624e-01 7.642176908687355539e-36
4.872536510706058088e-01 7.138013973764489435e-36
5.083027379064073425e-01 6.664154770826630082e-36
5.302611335911987522e-01 6.219241528246929500e-36
5.531681197617227541e-01 5.801633816799017413e-36
5.770646749995906877e-01 5.409853062251993584e-36
6.019935481383572595e-01 5.042538957034394347e-36
6.279993347374204227e-01 4.698232377219112989e-36
6.551285568595509590e-01 4.375769435996505944e-36
6.834297462947672708e-01 4.073863195053566938e-36
7.129535313794351792e-01 3.791356930847806810e-36
7.437527275659046033e-01 3.527093418460812039e-36
7.758824319047037399e-01 3.280018870584298975e-36
8.094001216083124284e-01 3.049226118372474045e-36
8.443657568728348828e-01 2.833660159600069074e-36
8.808418881415118751e-01 2.632412834978948504e-36
9.188937680019572118e-01 2.444662066484495866e-36
9.585894679172923816e-01 2.269475529339378938e-36
1.000000000000000000e+00 2.106217843521852549e-36
