# m_chi = 0.05 [GeV]; mS = 0.3 [GeV]; gchi =0.01; gN = 0.01
# Tchi [GeV], sigma [cm^2]
9.999999999999999547e-07 9.728103696611195772e-35
1.264855216855295881e-06 9.728210567460587360e-35
1.599858719606057360e-06 9.728180335353920382e-35
2.023589647725155726e-06 9.728250490327046431e-35
2.559547922699533382e-06 9.728230484679984073e-35
3.237457542817646685e-06 9.728235458660128410e-35
4.094915062380427237e-06 9.728189376378317390e-35
5.179474679231212330e-06 9.728297027425239808e-35
6.551285568595509496e-06 9.728292545821384860e-35
8.286427728546842542e-06 9.728357308046402176e-35
1.048113134154685250e-05 9.728526496804031850e-35
1.325711365590110898e-05 9.728393818403117342e-35
1.676832936811009972e-05 9.728515725471341967e-35
2.120950887920192640e-05 9.728695740104433126e-35
2.682695795279727390e-05 9.728887042732541607e-35
3.393221771895329857e-05 9.729029405176729476e-35
4.291934260128778017e-05 9.729254947923083405e-35
5.428675439323859403e-05 9.729667572601173116e-35
6.866488450042998925e-05 9.729869580297967714e-35
8.685113737513520580e-05 9.730322202358249386e-35
1.098541141987558346e-04 9.730982178797246260e-35
1.389495494373137348e-04 9.731673489108195637e-35
1.757510624854793067e-04 9.732707816431342770e-35
2.222996482526195465e-04 9.733890978131531556e-35
2.811768697974231118e-04 9.735359721674900651e-35
3.556480306223128661e-04 9.737066676873365074e-35
4.498432668969443876e-04 9.739403458997066350e-35
5.689866029018298636e-04 9.742276331133846744e-35
7.196856730011521675e-04 9.745775338670162998e-35
9.102981779915217267e-04 9.750050545976931959e-35
1.151395399326448146e-03 9.755101159623944324e-35
1.456348477501244378e-03 9.761324128700575643e-35
1.842069969326716331e-03 9.768332205749232505e-35
2.329951810515372077e-03 9.776478974424525535e-35
2.947051702551809708e-03 9.785157636492862192e-35
3.727593720314941773e-03 9.793731063290057445e-35
4.714866363457394238e-03 9.800225796234240164e-35
5.963623316594642357e-03 9.802168964296620600e-35
7.543120063354623143e-03 9.794314161264044388e-35
9.540954763499944619e-03 9.768306495812909838e-35
1.206792640639328847e-02 9.709746705992573568e-35
1.526417967175233356e-02 9.596231438530392628e-35
1.930697728883249559e-02 9.394409557578890151e-35
2.442053094548649744e-02 9.057418101269932400e-35
3.088843596477484910e-02 8.526749643947904733e-35
3.906939937054620948e-02 7.746258660689563620e-35
4.941713361323837872e-02 6.693750068893162746e-35
6.250551925273975518e-02 5.425619643930800214e-35
7.906043210907701124e-02 3.892967442477536479e-35
1.000000000000000056e-01 2.755531028351822005e-35
1.258925411794167282e-01 1.937908677839097763e-35
1.313310289679490150e-01 1.813993899767459942e-35
1.370044564053987113e-01 1.697256992969813375e-35
1.429229727539835237e-01 1.587317371906460200e-35
1.490971657184064214e-01 1.483868763723578151e-35
1.555380803863272154e-01 1.386578128121415199e-35
1.622572389870521326e-01 1.295111605556642487e-35
1.692666615037875799e-01 1.209158876064966843e-35
1.765788871763319112e-01 1.128431805152839945e-35
1.842069969326715906e-01 1.052683655199975165e-35
1.921646367896096275e-01 9.815932776654155879e-36
2.004660422642884077e-01 9.149600948324682989e-36
2.091260638402766547e-01 8.524982233760431304e-36
2.181601935337768583e-01 7.939867061380548951e-36
2.275845926074788750e-01 7.392064437640529399e-36
2.374161204816356840e-01 6.879550087672507323e-36
2.476723648940822031e-01 6.400110827489623174e-36
2.583716733631498119e-01 5.951912331508132803e-36
2.695331860097615051e-01 5.533142916764231693e-36
2.811768697974230680e-01 5.141978799077771635e-36
2.933235542513630834e-01 4.776825420092646656e-36
3.059949687207196289e-01 4.436105609334850325e-36
3.192137812504330929e-01 4.118352486409350283e-36
3.330036391323831224e-01 3.822017326782309375e-36
3.473892112083115657e-01 3.545974698328296426e-36
3.623962320002086512e-01 3.288765532660995756e-36
3.780515477471075858e-01 3.049378772731139829e-36
3.943831644306425854e-01 2.826515596929690534e-36
4.114202978752842244e-01 2.619229954427320936e-36
4.291934260128778544e-01 2.426421476392110655e-36
4.477343434049798621e-01 2.247241482951345546e-36
4.670762181205299624e-01 2.080676004064130853e-36
4.872536510706058088e-01 1.926011874987183010e-36
5.083027379064073425e-01 1.782360295532121845e-36
5.302611335911987522e-01 1.649015219510949216e-36
5.531681197617227541e-01 1.525295005312272265e-36
5.770646749995906877e-01 1.410508255034219008e-36
6.019935481383572595e-01 1.304094513712902438e-36
6.279993347374204227e-01 1.205448653855964831e-36
6.551285568595509590e-01 1.114005532292987652e-36
6.834297462947672708e-01 1.029300674424279895e-36
7.129535313794351792e-01 9.508523853513185961e-37
7.437527275659046033e-01 8.782022628231467514e-37
7.758824319047037399e-01 8.109579992332837770e-37
8.094001216083124284e-01 7.487195720284801563e-37
8.443657568728348828e-01 6.911289650677704272e-37
8.808418881415118751e-01 6.378770300103956053e-37
9.188937680019572118e-01 5.886310545705116037e-37
9.585894679172923816e-01 5.430944861030588836e-37
1.000000000000000000e+00 5.010112177882460138e-37
