# m_chi = 0.08 [GeV]; mS = 0.2 [GeV]; gchi =0.01; gN = 0.01
# Tchi [GeV], sigma [cm^2]
9.999999999999999547e-07 1.255726103336679374e-33
1.264855216855295881e-06 1.255703792708342995e-33
1.599858719606057360e-06 1.255719438189110474e-33
2.023589647725155726e-06 1.255698033245324279e-33
2.559547922699533382e-06 1.255676587443204624e-33
3.237457542817646685e-06 1.255667241960637671e-33
4.094915062380427237e-06 1.255630876197801056e-33
5.179474679231212330e-06 1.255611203984570076e-33
6.551285568595509496e-06 1.255566140365743737e-33
8.286427728546842542e-06 1.255512792377161842e-33
1.048113134154685250e-05 1.255439148985993590e-33
1.325711365590110898e-05 1.255355429974733395e-33
1.676832936811009972e-05 1.255255920141899679e-33
2.120950887920192640e-05 1.255119820619537690e-33
2.682695795279727390e-05 1.254969763267692011e-33
3.393221771895329857e-05 1.254739928091775477e-33
4.291934260128778017e-05 1.254473361726514340e-33
5.428675439323859403e-05 1.254151762606312614e-33
6.866488450042998925e-05 1.253715476193887007e-33
8.685113737513520580e-05 1.253165830013174333e-33
1.098541141987558346e-04 1.252485025402468502e-33
1.389495494373137348e-04 1.251617914884053585e-33
1.757510624854793067e-04 1.250523310855964123e-33
2.222996482526195465e-04 1.249140858626565565e-33
2.811768697974231118e-04 1.247400286162569215e-33
3.556480306223128661e-04 1.245188401012753039e-33
4.498432668969443876e-04 1.242394734934114519e-33
5.689866029018298636e-04 1.238887562714145793e-33
7.196856730011521675e-04 1.234421447781799057e-33
9.102981779915217267e-04 1.228792514620196913e-33
1.151395399326448146e-03 1.221763628295937105e-33
1.456348477501244378e-03 1.212856860711028492e-33
1.842069969326716331e-03 1.201673513016578802e-33
2.329951810515372077e-03 1.187632395081145554e-33
2.947051702551809708e-03 1.170060638033685809e-33
3.727593720314941773e-03 1.148095661380376576e-33
4.714866363457394238e-03 1.120783074340127551e-33
5.963623316594642357e-03 1.086958667307787596e-33
7.543120063354623143e-03 1.045367704940680662e-33
9.540954763499944619e-03 9.946913078960559136e-34
1.206792640639328847e-02 9.336571550539798491e-34
1.526417967175233356e-02 8.613722418070344327e-34
1.930697728883249559e-02 7.775817756968409891e-34
2.442053094548649744e-02 6.833245188543744838e-34
3.088843596477484910e-02 5.813853848023024004e-34
3.906939937054620948e-02 4.766915175839738972e-34
4.941713361323837872e-02 3.751245285382655109e-34
6.250551925273975518e-02 2.791319349264773887e-34
7.906043210907701124e-02 2.053963315296497027e-34
1.000000000000000056e-01 1.493111546138137575e-34
1.258925411794167282e-01 1.078624990559567429e-34
1.313310289679490150e-01 1.014647076974319621e-34
1.370044564053987113e-01 9.540398808777522776e-35
1.429229727539835237e-01 8.966719805813714554e-35
1.490971657184064214e-01 8.423710842028317978e-35
1.555380803863272154e-01 7.909917072263935126e-35
1.622572389870521326e-01 7.424349065121490805e-35
1.692666615037875799e-01 6.965442316460171880e-35
1.765788871763319112e-01 6.531852819180322592e-35
1.842069969326715906e-01 6.122635660720384934e-35
1.921646367896096275e-01 5.736371607691327945e-35
2.004660422642884077e-01 5.372241100183740372e-35
2.091260638402766547e-01 5.029062971981127355e-35
2.181601935337768583e-01 4.705571348860507034e-35
2.275845926074788750e-01 4.401044456850857569e-35
2.374161204816356840e-01 4.114434170820295202e-35
2.476723648940822031e-01 3.844820783435562952e-35
2.583716733631498119e-01 3.591343330698991042e-35
2.695331860097615051e-01 3.353166027710716448e-35
2.811768697974230680e-01 3.129478214932468842e-35
2.933235542513630834e-01 2.919549108153013797e-35
3.059949687207196289e-01 2.722483914149292236e-35
3.192137812504330929e-01 2.537792810225378179e-35
3.330036391323831224e-01 2.364665337192886425e-35
3.473892112083115657e-01 2.202462169289997420e-35
3.623962320002086512e-01 2.050607123609296723e-35
3.780515477471075858e-01 1.908469824172359510e-35
3.943831644306425854e-01 1.775567568342226614e-35
4.114202978752842244e-01 1.651316324040110898e-35
4.291934260128778544e-01 1.535151515270526179e-35
4.477343434049798621e-01 1.426685797335928008e-35
4.670762181205299624e-01 1.325436141765697384e-35
4.872536510706058088e-01 1.230944460123427851e-35
5.083027379064073425e-01 1.142788963993401384e-35
5.302611335911987522e-01 1.060617190783282440e-35
5.531681197617227541e-01 9.840380095901122469e-36
5.770646749995906877e-01 9.127020361213879740e-36
6.019935481383572595e-01 8.462861881754188901e-36
6.279993347374204227e-01 7.844845565056736161e-36
6.551285568595509590e-01 7.269668670828871522e-36
6.834297462947672708e-01 6.734748325302596228e-36
7.129535313794351792e-01 6.237543155037715416e-36
7.437527275659046033e-01 5.775421397688268973e-36
7.758824319047037399e-01 5.346172945800065790e-36
8.094001216083124284e-01 4.947631616497745284e-36
8.443657568728348828e-01 4.577653460478784866e-36
8.808418881415118751e-01 4.234280693458707627e-36
9.188937680019572118e-01 3.915765760306368772e-36
9.585894679172923816e-01 3.620470223045837972e-36
1.000000000000000000e+00 3.346599524142020677e-36
