# m_chi = 0.06666666666666667 [GeV]; mS = 0.2 [GeV]; gchi =0.01; gN = 0.01
# Tchi [GeV], sigma [cm^2]
9.999999999999999547e-07 8.735814950515105608e-34
1.264855216855295881e-06 8.735861249237193307e-34
1.599858719606057360e-06 8.735690701377724118e-34
2.023589647725155726e-06 8.735723035582245643e-34
2.559547922699533382e-06 8.735554085539665845e-34
3.237457542817646685e-06 8.735444571611315205e-34
4.094915062380427237e-06 8.735496467522339304e-34
5.179474679231212330e-06 8.735344877791472079e-34
6.551285568595509496e-06 8.735134416236205373e-34
8.286427728546842542e-06 8.734890917662408068e-34
1.048113134154685250e-05 8.734686965795353121e-34
1.325711365590110898e-05 8.734203189210199069e-34
1.676832936811009972e-05 8.733726024470015405e-34
2.120950887920192640e-05 8.733135903148988293e-34
2.682695795279727390e-05 8.732421407406051898e-34
3.393221771895329857e-05 8.731432837508685181e-34
4.291934260128778017e-05 8.730254012697545114e-34
5.428675439323859403e-05 8.728739576896072339e-34
6.866488450042998925e-05 8.726809441665802109e-34
8.685113737513520580e-05 8.724423214277038062e-34
1.098541141987558346e-04 8.721307190067306781e-34
1.389495494373137348e-04 8.717340932911485987e-34
1.757510624854793067e-04 8.712489796027304554e-34
2.222996482526195465e-04 8.706057659042830832e-34
2.811768697974231118e-04 8.698377296534705537e-34
3.556480306223128661e-04 8.688411802397412696e-34
4.498432668969443876e-04 8.675743118510654316e-34
5.689866029018298636e-04 8.659774032294354865e-34
7.196856730011521675e-04 8.639535737337427568e-34
9.102981779915217267e-04 8.613880912099376368e-34
1.151395399326448146e-03 8.581523629627599786e-34
1.456348477501244378e-03 8.540359489904269688e-34
1.842069969326716331e-03 8.488299779740444678e-34
2.329951810515372077e-03 8.422251209850971242e-34
2.947051702551809708e-03 8.338435395741501584e-34
3.727593720314941773e-03 8.232354441950339322e-34
4.714866363457394238e-03 8.097820574164286783e-34
5.963623316594642357e-03 7.927519471095312343e-34
7.543120063354623143e-03 7.712110637234645523e-34
9.540954763499944619e-03 7.440993351610899417e-34
1.206792640639328847e-02 7.101196773683033524e-34
1.526417967175233356e-02 6.679819990422928498e-34
1.930697728883249559e-02 6.164974295677577825e-34
2.442053094548649744e-02 5.550385659743198726e-34
3.088843596477484910e-02 4.841075489340411696e-34
3.906939937054620948e-02 4.061693617377952160e-34
4.941713361323837872e-02 3.259679303126647032e-34
6.250551925273975518e-02 2.451301457060077052e-34
7.906043210907701124e-02 1.786957094606075693e-34
1.000000000000000056e-01 1.285959432080274388e-34
1.258925411794167282e-01 9.194542991721127400e-35
1.313310289679490150e-01 8.632744860724791543e-35
1.370044564053987113e-01 8.101586860326933355e-35
1.429229727539835237e-01 7.599771678777765927e-35
1.490971657184064214e-01 7.125780013571787210e-35
1.555380803863272154e-01 6.678362126552921830e-35
1.622572389870521326e-01 6.256203816217818082e-35
1.692666615037875799e-01 5.858322507363745976e-35
1.765788871763319112e-01 5.483176692279318728e-35
1.842069969326715906e-01 5.129847968220766753e-35
1.921646367896096275e-01 4.797184178732905180e-35
2.004660422642884077e-01 4.484228143438106620e-35
2.091260638402766547e-01 4.189785543066978908e-35
2.181601935337768583e-01 3.913094372117385219e-35
2.275845926074788750e-01 3.653099539290682780e-35
2.374161204816356840e-01 3.408960271631773627e-35
2.476723648940822031e-01 3.179787298990327275e-35
2.583716733631498119e-01 2.964844005318555601e-35
2.695331860097615051e-01 2.763341073136266803e-35
2.811768697974230680e-01 2.574482833446397184e-35
2.933235542513630834e-01 2.397664860167127308e-35
3.059949687207196289e-01 2.232075988562657169e-35
3.192137812504330929e-01 2.077165796601804891e-35
3.330036391323831224e-01 1.932241106505245986e-35
3.473892112083115657e-01 1.796797249322399333e-35
3.623962320002086512e-01 1.670257111829314477e-35
3.780515477471075858e-01 1.552080507609593619e-35
3.943831644306425854e-01 1.441742154700724624e-35
4.114202978752842244e-01 1.338810900002992449e-35
4.291934260128778544e-01 1.242839472354058289e-35
4.477343434049798621e-01 1.153364706929544347e-35
4.670762181205299624e-01 1.069958835472888274e-35
4.872536510706058088e-01 9.923091936747586178e-36
5.083027379064073425e-01 9.200255599704135615e-36
5.302611335911987522e-01 8.527389978819769419e-36
5.531681197617227541e-01 7.901621775415957195e-36
5.770646749995906877e-01 7.319585063178069025e-36
6.019935481383572595e-01 6.778539930355479209e-36
6.279993347374204227e-01 6.275904905511241218e-36
6.551285568595509590e-01 5.809049953838453804e-36
6.834297462947672708e-01 5.375516909324180188e-36
7.129535313794351792e-01 4.973214215174865794e-36
7.437527275659046033e-01 4.599811510536528308e-36
7.758824319047037399e-01 4.253553626885834243e-36
8.094001216083124284e-01 3.932410816425357771e-36
8.443657568728348828e-01 3.634732329157170797e-36
8.808418881415118751e-01 3.358949631688164111e-36
9.188937680019572118e-01 3.103384156037003078e-36
9.585894679172923816e-01 2.866708955122571603e-36
1.000000000000000000e+00 2.647618228034853329e-36
