# m_chi = 0.03333333333333333 [GeV]; mS = 0.1 [GeV]; gchi =0.01; gN = 0.01
# Tchi [GeV], sigma [cm^2]
9.999999999999999547e-07 3.509895042411432816e-33
1.264855216855295881e-06 3.509877017016213204e-33
1.599858719606057360e-06 3.509891741692206931e-33
2.023589647725155726e-06 3.509874053478555517e-33
2.559547922699533382e-06 3.509860680806021470e-33
3.237457542817646685e-06 3.509819236120762260e-33
4.094915062380427237e-06 3.509837526200692528e-33
5.179474679231212330e-06 3.509790615843161073e-33
6.551285568595509496e-06 3.509795387097275940e-33
8.286427728546842542e-06 3.509762005665050453e-33
1.048113134154685250e-05 3.509698515824686359e-33
1.325711365590110898e-05 3.509653570039652574e-33
1.676832936811009972e-05 3.509568049562006540e-33
2.120950887920192640e-05 3.509475432330731860e-33
2.682695795279727390e-05 3.509384356158219941e-33
3.393221771895329857e-05 3.509270165636099292e-33
4.291934260128778017e-05 3.509117843969410939e-33
5.428675439323859403e-05 3.508871526675455357e-33
6.866488450042998925e-05 3.508598527266180892e-33
8.685113737513520580e-05 3.508288891178034286e-33
1.098541141987558346e-04 3.507823743095711556e-33
1.389495494373137348e-04 3.507322666666267097e-33
1.757510624854793067e-04 3.506572484720650321e-33
2.222996482526195465e-04 3.505728570306328152e-33
2.811768697974231118e-04 3.504587821389397228e-33
3.556480306223128661e-04 3.503096866094492116e-33
4.498432668969443876e-04 3.501255865975545409e-33
5.689866029018298636e-04 3.498910414456380341e-33
7.196856730011521675e-04 3.495827731192521683e-33
9.102981779915217267e-04 3.491857927714642048e-33
1.151395399326448146e-03 3.486683008052245800e-33
1.456348477501244378e-03 3.479925202989917414e-33
1.842069969326716331e-03 3.471029489398095839e-33
2.329951810515372077e-03 3.459155927110144051e-33
2.947051702551809708e-03 3.443295349982767430e-33
3.727593720314941773e-03 3.421881507793200250e-33
4.714866363457394238e-03 3.392744625585590023e-33
5.963623316594642357e-03 3.352876465910164008e-33
7.543120063354623143e-03 3.298036708659488849e-33
9.540954763499944619e-03 3.222671145013101148e-33
1.206792640639328847e-02 3.119394651426017668e-33
1.526417967175233356e-02 2.979513001123351087e-33
1.930697728883249559e-02 2.793853427655074359e-33
2.442053094548649744e-02 2.554752820354900045e-33
3.088843596477484910e-02 2.259933013687719236e-33
3.906939937054620948e-02 1.917068697923388555e-33
4.941713361323837872e-02 1.546981423579535705e-33
6.250551925273975518e-02 1.182188113154331522e-33
7.906043210907701124e-02 8.506657588932481421e-34
1.000000000000000056e-01 5.880502401539373606e-34
1.258925411794167282e-01 4.042944854356287149e-34
1.313310289679490150e-01 3.769048459263254740e-34
1.370044564053987113e-01 3.512343313141716035e-34
1.429229727539835237e-01 3.271808183133623561e-34
1.490971657184064214e-01 3.046517241663427267e-34
1.555380803863272154e-01 2.835741729265291809e-34
1.622572389870521326e-01 2.638526536131672406e-34
1.692666615037875799e-01 2.454085717597844623e-34
1.765788871763319112e-01 2.281790887732453314e-34
1.842069969326715906e-01 2.120787061878850549e-34
1.921646367896096275e-01 1.970454949813215267e-34
2.004660422642884077e-01 1.830174681018134942e-34
2.091260638402766547e-01 1.699291512560120582e-34
2.181601935337768583e-01 1.577262176019655969e-34
2.275845926074788750e-01 1.463509732809337752e-34
2.374161204816356840e-01 1.357560767525791518e-34
2.476723648940822031e-01 1.258894028439161811e-34
2.583716733631498119e-01 1.167036234729895391e-34
2.695331860097615051e-01 1.081567247491147305e-34
2.811768697974230680e-01 1.002063109152064248e-34
2.933235542513630834e-01 9.281756118999388180e-35
3.059949687207196289e-01 8.594715195334078532e-35
3.192137812504330929e-01 7.956447222933838361e-35
3.330036391323831224e-01 7.363907119249107037e-35
3.473892112083115657e-01 6.813635254140081677e-35
3.623962320002086512e-01 6.303121599325475931e-35
3.780515477471075858e-01 5.829353940339684867e-35
3.943831644306425854e-01 5.389991568693092917e-35
4.114202978752842244e-01 4.982685171256674796e-35
4.291934260128778544e-01 4.605145265284125495e-35
4.477343434049798621e-01 4.255358252212402845e-35
4.670762181205299624e-01 3.931296385635800260e-35
4.872536510706058088e-01 3.631217012731518566e-35
5.083027379064073425e-01 3.353441813142139872e-35
5.302611335911987522e-01 3.096345718324689779e-35
5.531681197617227541e-01 2.858457020741275100e-35
5.770646749995906877e-01 2.638336979836821742e-35
6.019935481383572595e-01 2.434776162043156482e-35
6.279993347374204227e-01 2.246598355494969163e-35
6.551285568595509590e-01 2.072609157226663166e-35
6.834297462947672708e-01 1.911823876032994327e-35
7.129535313794351792e-01 1.763240800165857643e-35
7.437527275659046033e-01 1.626010683468689134e-35
7.758824319047037399e-01 1.499233787852946574e-35
8.094001216083124284e-01 1.382158205965327261e-35
8.443657568728348828e-01 1.274065548733325423e-35
8.808418881415118751e-01 1.174301377369023736e-35
9.188937680019572118e-01 1.082197554496224304e-35
9.585894679172923816e-01 9.972226907237820866e-36
1.000000000000000000e+00 9.188268651972789096e-36
