# m_chi = 0.001 [GeV]; mS = 0.3 [GeV]; gchi =0.01; gN = 0.01
# Tchi [GeV], sigma [cm^2]
9.999999999999999547e-07 4.803183083756533114e-37
1.264855216855295881e-06 4.804404395107523878e-37
1.599858719606057360e-06 4.806040669510196820e-37
2.023589647725155726e-06 4.808146585235694665e-37
2.559547922699533382e-06 4.810713089899054150e-37
3.237457542817646685e-06 4.813960620669964869e-37
4.094915062380427237e-06 4.818078326843385592e-37
5.179474679231212330e-06 4.823318432396715066e-37
6.551285568595509496e-06 4.829870447569407916e-37
8.286427728546842542e-06 4.838319958546831095e-37
1.048113134154685250e-05 4.848938709147412982e-37
1.325711365590110898e-05 4.862444620306780625e-37
1.676832936811009972e-05 4.879451382753618802e-37
2.120950887920192640e-05 4.901072227011750106e-37
2.682695795279727390e-05 4.928828700881944167e-37
3.393221771895329857e-05 4.963912118157370404e-37
4.291934260128778017e-05 5.008596451368997248e-37
5.428675439323859403e-05 5.065777994917758100e-37
6.866488450042998925e-05 5.138973216510823091e-37
8.685113737513520580e-05 5.232919652758801331e-37
1.098541141987558346e-04 5.354119176282487438e-37
1.389495494373137348e-04 5.510962561461488546e-37
1.757510624854793067e-04 5.715057726907694928e-37
2.222996482526195465e-04 5.982652566409599521e-37
2.811768697974231118e-04 6.335927057483820614e-37
3.556480306223128661e-04 6.806414028616757845e-37
4.498432668969443876e-04 7.439623149565583417e-37
5.689866029018298636e-04 8.301078730009456403e-37
7.196856730011521675e-04 9.487730371187335593e-37
9.102981779915217267e-04 1.114383361206276654e-36
1.151395399326448146e-03 1.348611001358662016e-36
1.456348477501244378e-03 1.684361406693873915e-36
1.842069969326716331e-03 2.172089586104912538e-36
2.329951810515372077e-03 2.889285714689262401e-36
2.947051702551809708e-03 3.955763573466431295e-36
3.727593720314941773e-03 5.556986594729832136e-36
4.714866363457394238e-03 7.979129043656501890e-36
5.963623316594642357e-03 1.166227483240010867e-35
7.543120063354623143e-03 1.727330542521704298e-35
9.540954763499944619e-03 2.580175155548164923e-35
1.206792640639328847e-02 3.865752947248724353e-35
1.526417967175233356e-02 5.769876713041141479e-35
1.930697728883249559e-02 8.502074585198635127e-35
2.442053094548649744e-02 1.220906245121629736e-34
3.088843596477484910e-02 1.676376438784777825e-34
3.906939937054620948e-02 2.139667123629304412e-34
4.941713361323837872e-02 2.437410755783213873e-34
6.250551925273975518e-02 2.350788350182449043e-34
7.906043210907701124e-02 1.834495202029539060e-34
1.000000000000000056e-01 1.198342997207385992e-34
1.258925411794167282e-01 7.591717154580535642e-35
1.313310289679490150e-01 6.980514797505424019e-35
1.370044564053987113e-01 6.418161692706255547e-35
1.429229727539835237e-01 5.901276301576467513e-35
1.490971657184064214e-01 5.425697295253240576e-35
1.555380803863272154e-01 4.988513276075640627e-35
1.622572389870521326e-01 4.586164373599901060e-35
1.692666615037875799e-01 4.216313980186893553e-35
1.765788871763319112e-01 3.876173392247125358e-35
1.842069969326715906e-01 3.563549375393235760e-35
1.921646367896096275e-01 3.275936694875275429e-35
2.004660422642884077e-01 3.011552630445263258e-35
2.091260638402766547e-01 2.768474889419026519e-35
2.181601935337768583e-01 2.544900413285274040e-35
2.275845926074788750e-01 2.339351008089283887e-35
2.374161204816356840e-01 2.150379844251123275e-35
2.476723648940822031e-01 1.976706198115754078e-35
2.583716733631498119e-01 1.816938463501715602e-35
2.695331860097615051e-01 1.670091390258428691e-35
2.811768697974230680e-01 1.535161804129320269e-35
2.933235542513630834e-01 1.411027367830750357e-35
3.059949687207196289e-01 1.296947701145242629e-35
3.192137812504330929e-01 1.192083138148643837e-35
3.330036391323831224e-01 1.095673113712898680e-35
3.473892112083115657e-01 1.007073506919794668e-35
3.623962320002086512e-01 9.255988009119536010e-36
3.780515477471075858e-01 8.507082439648233408e-36
3.943831644306425854e-01 7.818840234375858960e-36
4.114202978752842244e-01 7.186228843513890113e-36
4.291934260128778544e-01 6.604607488554661254e-36
4.477343434049798621e-01 6.070224694768809648e-36
4.670762181205299624e-01 5.578915411075038691e-36
4.872536510706058088e-01 5.127340549788175060e-36
5.083027379064073425e-01 4.712342418293915308e-36
5.302611335911987522e-01 4.330827516638693472e-36
5.531681197617227541e-01 3.980188520079004817e-36
5.770646749995906877e-01 3.657796534576779988e-36
6.019935481383572595e-01 3.361613774865468191e-36
6.279993347374204227e-01 3.089438713347484185e-36
6.551285568595509590e-01 2.839282886602277093e-36
6.834297462947672708e-01 2.609380450474168028e-36
7.129535313794351792e-01 2.397900732460867205e-36
7.437527275659046033e-01 2.203768482061601428e-36
7.758824319047037399e-01 2.025207100425557122e-36
8.094001216083124284e-01 1.861185778855746654e-36
8.443657568728348828e-01 1.710434809084582855e-36
8.808418881415118751e-01 1.571836721128366048e-36
9.188937680019572118e-01 1.444480339171423880e-36
9.585894679172923816e-01 1.327434747652464457e-36
1.000000000000000000e+00 1.219861573813235454e-36
