# m_chi = 0.08 [GeV]; mS = 0.2 [GeV]; gchi =0.01; gN = 0.01
# Tchi [GeV], sigma [cm^2]
9.999999999999999547e-07 1.549960922192893177e-32
1.264855216855295881e-06 1.549929205216622212e-32
1.599858719606057360e-06 1.549908377786238220e-32
2.023589647725155726e-06 1.549896246480692795e-32
2.559547922699533382e-06 1.549853188765299383e-32
3.237457542817646685e-06 1.549815669990244610e-32
4.094915062380427237e-06 1.549754180044516378e-32
5.179474679231212330e-06 1.549685956707155159e-32
6.551285568595509496e-06 1.549599124022035651e-32
8.286427728546842542e-06 1.549491452351603460e-32
1.048113134154685250e-05 1.549358296628610357e-32
1.325711365590110898e-05 1.549164731248603363e-32
1.676832936811009972e-05 1.548949442708509610e-32
2.120950887920192640e-05 1.548670498365494758e-32
2.682695795279727390e-05 1.548301545385813413e-32
3.393221771895329857e-05 1.547848470099425571e-32
4.291934260128778017e-05 1.547298090202186306e-32
5.428675439323859403e-05 1.546558527284366271e-32
6.866488450042998925e-05 1.545650209442837480e-32
8.685113737513520580e-05 1.544486854854790965e-32
1.098541141987558346e-04 1.543044723454969622e-32
1.389495494373137348e-04 1.541173646105489202e-32
1.757510624854793067e-04 1.538846136795778439e-32
2.222996482526195465e-04 1.535906259013436696e-32
2.811768697974231118e-04 1.532219731247696180e-32
3.556480306223128661e-04 1.527505722552749969e-32
4.498432668969443876e-04 1.521594523148353841e-32
5.689866029018298636e-04 1.514152928836512536e-32
7.196856730011521675e-04 1.504790385876252337e-32
9.102981779915217267e-04 1.493022104181737724e-32
1.151395399326448146e-03 1.478223424395046884e-32
1.456348477501244378e-03 1.459722890863282308e-32
1.842069969326716331e-03 1.436638241856681419e-32
2.329951810515372077e-03 1.407908035166644376e-32
2.947051702551809708e-03 1.372365127939331877e-32
3.727593720314941773e-03 1.328600729485249110e-32
4.714866363457394238e-03 1.275185982006883539e-32
5.963623316594642357e-03 1.210594743660770916e-32
7.543120063354623143e-03 1.133588522001464751e-32
9.540954763499944619e-03 1.043285344659677610e-32
1.206792640639328847e-02 9.398193420201717072e-33
1.526417967175233356e-02 8.247570612630260650e-33
1.930697728883249559e-02 7.017277882808034289e-33
2.442053094548649744e-02 5.766874596568209911e-33
3.088843596477484910e-02 4.573900135448997857e-33
3.906939937054620948e-02 3.516968197179356263e-33
4.941713361323837872e-02 2.648224946911479331e-33
6.250551925273975518e-02 1.970531760244288929e-33
7.906043210907701124e-02 1.450082315832295253e-33
1.000000000000000056e-01 1.054082122025132326e-33
1.258925411794167282e-01 7.614583894731518161e-34
1.313310289679490150e-01 7.162867660527604109e-34
1.370044564053987113e-01 6.735138583885419034e-34
1.429229727539835237e-01 6.330107563813890333e-34
1.490971657184064214e-01 5.946713266624266344e-34
1.555380803863272154e-01 5.584182857999678619e-34
1.622572389870521326e-01 5.241283955393311745e-34
1.692666615037875799e-01 4.917311616241413924e-34
1.765788871763319112e-01 4.611255679755570838e-34
1.842069969326715906e-01 4.322262710449231030e-34
1.921646367896096275e-01 4.049824417407446107e-34
2.004660422642884077e-01 3.792566769022452240e-34
2.091260638402766547e-01 3.550267875486771777e-34
2.181601935337768583e-01 3.321953478987119944e-34
2.275845926074788750e-01 3.106892803247019288e-34
2.374161204816356840e-01 2.904664112502987770e-34
2.476723648940822031e-01 2.714313399337661519e-34
2.583716733631498119e-01 2.535316845956021247e-34
2.695331860097615051e-01 2.367216950612614848e-34
2.811768697974230680e-01 2.209314089519025472e-34
2.933235542513630834e-01 2.061031722781061167e-34
3.059949687207196289e-01 1.921989997323867239e-34
3.192137812504330929e-01 1.791571621855150955e-34
3.330036391323831224e-01 1.669356599881718755e-34
3.473892112083115657e-01 1.554838714669723088e-34
3.623962320002086512e-01 1.447684806613804103e-34
3.780515477471075858e-01 1.347293292909541763e-34
3.943831644306425854e-01 1.253512069010942338e-34
4.114202978752842244e-01 1.165753214584791753e-34
4.291934260128778544e-01 1.083768395026376303e-34
4.477343434049798621e-01 1.007184354566936850e-34
4.670762181205299624e-01 9.356864018757260433e-35
4.872536510706058088e-01 8.689958370940638983e-35
5.083027379064073425e-01 8.067717761898207268e-35
5.302611335911987522e-01 7.487555983292120450e-35
5.531681197617227541e-01 6.946937636747375442e-35
5.770646749995906877e-01 6.443456989908230234e-35
6.019935481383572595e-01 5.974535692452092566e-35
6.279993347374204227e-01 5.538127419860413044e-35
6.551285568595509590e-01 5.132194252317139473e-35
6.834297462947672708e-01 4.754497084619592597e-35
7.129535313794351792e-01 4.403426373317166070e-35
7.437527275659046033e-01 4.077252137300629201e-35
7.758824319047037399e-01 3.774246123291104767e-35
8.094001216083124284e-01 3.492725114588258608e-35
8.443657568728348828e-01 3.231606552155409888e-35
8.808418881415118751e-01 2.989252013377932782e-35
9.188937680019572118e-01 2.764413548785508897e-35
9.585894679172923816e-01 2.555847898702602174e-35
1.000000000000000000e+00 2.362562324352045588e-35
