# m_chi = 0.06666666666666667 [GeV]; mS = 0.2 [GeV]; gchi =0.01; gN = 0.01
# Tchi [GeV], sigma [cm^2]
9.999999999999999547e-07 1.076927840006090007e-32
1.264855216855295881e-06 1.076906932677725323e-32
1.599858719606057360e-06 1.076895610264853846e-32
2.023589647725155726e-06 1.076878024699517404e-32
2.559547922699533382e-06 1.076868896127189175e-32
3.237457542817646685e-06 1.076842613311418985e-32
4.094915062380427237e-06 1.076822147898001574e-32
5.179474679231212330e-06 1.076783629062645350e-32
6.551285568595509496e-06 1.076739812274774656e-32
8.286427728546842542e-06 1.076683984531931611e-32
1.048113134154685250e-05 1.076599891309332385e-32
1.325711365590110898e-05 1.076528428623407010e-32
1.676832936811009972e-05 1.076413792305272618e-32
2.120950887920192640e-05 1.076278141623822911e-32
2.682695795279727390e-05 1.076092398618714571e-32
3.393221771895329857e-05 1.075868340941288338e-32
4.291934260128778017e-05 1.075580880801606073e-32
5.428675439323859403e-05 1.075207620492739319e-32
6.866488450042998925e-05 1.074763352496387433e-32
8.685113737513520580e-05 1.074170355025256598e-32
1.098541141987558346e-04 1.073434558961958366e-32
1.389495494373137348e-04 1.072514536796633236e-32
1.757510624854793067e-04 1.071332848125503697e-32
2.222996482526195465e-04 1.069844596549233356e-32
2.811768697974231118e-04 1.067976229369321157e-32
3.556480306223128661e-04 1.065607678170004752e-32
4.498432668969443876e-04 1.062609931429161904e-32
5.689866029018298636e-04 1.058823513972959176e-32
7.196856730011521675e-04 1.054056781468128410e-32
9.102981779915217267e-04 1.048026760831985497e-32
1.151395399326448146e-03 1.040428444247203393e-32
1.456348477501244378e-03 1.030868036577682300e-32
1.842069969326716331e-03 1.018834807904303421e-32
2.329951810515372077e-03 1.003743679422679899e-32
2.947051702551809708e-03 9.848292797442597168e-33
3.727593720314941773e-03 9.612041332761930716e-33
4.714866363457394238e-03 9.318425526845853133e-33
5.963623316594642357e-03 8.955537600787607242e-33
7.543120063354623143e-03 8.510485902296163750e-33
9.540954763499944619e-03 7.971419419114566515e-33
1.206792640639328847e-02 7.328631776275125964e-33
1.526417967175233356e-02 6.579725123506967208e-33
1.930697728883249559e-02 5.734527754845350222e-33
2.442053094548649744e-02 4.822435514784209588e-33
3.088843596477484910e-02 3.895080169511699018e-33
3.906939937054620948e-02 3.022481798586573839e-33
4.941713361323837872e-02 2.271590750847239038e-33
6.250551925273975518e-02 1.676306432129186736e-33
7.906043210907701124e-02 1.221975818357111690e-33
1.000000000000000056e-01 8.793947835205125397e-34
1.258925411794167282e-01 6.287576582304280587e-34
1.313310289679490150e-01 5.903317589011067753e-34
1.370044564053987113e-01 5.540096335790169700e-34
1.429229727539835237e-01 5.197080808933352939e-34
1.490971657184064214e-01 4.872847524502012778e-34
1.555380803863272154e-01 4.567034218135508014e-34
1.622572389870521326e-01 4.278294848184769601e-34
1.692666615037875799e-01 4.006134730056710725e-34
1.765788871763319112e-01 3.749613445703858263e-34
1.842069969326715906e-01 3.507935632216165874e-34
1.921646367896096275e-01 3.280478760583848481e-34
2.004660422642884077e-01 3.066451016253730792e-34
2.091260638402766547e-01 2.865185485959719463e-34
2.181601935337768583e-01 2.675864638764976428e-34
2.275845926074788750e-01 2.498109698480339068e-34
2.374161204816356840e-01 2.331165470763022086e-34
2.476723648940822031e-01 2.174508597777790675e-34
2.583716733631498119e-01 2.027490927750443368e-34
2.695331860097615051e-01 1.889758580510293928e-34
2.811768697974230680e-01 1.760589384341543521e-34
2.933235542513630834e-01 1.639608762958723674e-34
3.059949687207196289e-01 1.526366452563576319e-34
3.192137812504330929e-01 1.420399270985914134e-34
3.330036391323831224e-01 1.321324059118392011e-34
3.473892112083115657e-01 1.228729468726533418e-34
3.623962320002086512e-01 1.142209220119718859e-34
3.780515477471075858e-01 1.061350465059758839e-34
3.943831644306425854e-01 9.859150679914990762e-35
4.114202978752842244e-01 9.155631500047210608e-35
4.291934260128778544e-01 8.499015504828697529e-35
4.477343434049798621e-01 7.887254329418740646e-35
4.670762181205299624e-01 7.317022340040342112e-35
4.872536510706058088e-01 6.785929932006490618e-35
5.083027379064073425e-01 6.291294260299483072e-35
5.302611335911987522e-01 5.831422991889247489e-35
5.531681197617227541e-01 5.403407835818964227e-35
5.770646749995906877e-01 5.005263269257128894e-35
6.019935481383572595e-01 4.635397296389804956e-35
6.279993347374204227e-01 4.291766743127457183e-35
6.551285568595509590e-01 3.972351948572045303e-35
6.834297462947672708e-01 3.675948137650107647e-35
7.129535313794351792e-01 3.400819030661926695e-35
7.437527275659046033e-01 3.145487284507885388e-35
7.758824319047037399e-01 2.908737117831800318e-35
8.094001216083124284e-01 2.689157379729580471e-35
8.443657568728348828e-01 2.485547598918005469e-35
8.808418881415118751e-01 2.297008065694366889e-35
9.188937680019572118e-01 2.122193071299958077e-35
9.585894679172923816e-01 1.960344189938843945e-35
1.000000000000000000e+00 1.810537617886274212e-35
