# m_chi = 0.0003333333333333333 [GeV]; mS = 0.001 [GeV]; gchi =0.01; gN = 0.01
# Tchi [GeV], sigma [cm^2]
9.999999999999999547e-07 4.320126057221622049e-28
1.264855216855295881e-06 4.320511046129526602e-28
1.599858719606057360e-06 4.320923856022052820e-28
2.023589647725155726e-06 4.321550276106494682e-28
2.559547922699533382e-06 4.322253348388913885e-28
3.237457542817646685e-06 4.323163408801392712e-28
4.094915062380427237e-06 4.324317002822029971e-28
5.179474679231212330e-06 4.325784241565954812e-28
6.551285568595509496e-06 4.327509966257968949e-28
8.286427728546842542e-06 4.329695148675492416e-28
1.048113134154685250e-05 4.332308075137686127e-28
1.325711365590110898e-05 4.335421269686845608e-28
1.676832936811009972e-05 4.339170477400391835e-28
2.120950887920192640e-05 4.343353362007754921e-28
2.682695795279727390e-05 4.347995325137048053e-28
3.393221771895329857e-05 4.352767310602015916e-28
4.291934260128778017e-05 4.357040834488447273e-28
5.428675439323859403e-05 4.359853149443889764e-28
6.866488450042998925e-05 4.359312960793057874e-28
8.685113737513520580e-05 4.352559294964598309e-28
1.098541141987558346e-04 4.335281754085803495e-28
1.389495494373137348e-04 4.301019039333122278e-28
1.757510624854793067e-04 4.241132776384420659e-28
2.222996482526195465e-04 4.144981060704714892e-28
2.811768697974231118e-04 4.001043496417323791e-28
3.556480306223128661e-04 3.799118074535787090e-28
4.498432668969443876e-04 3.533687687884694943e-28
5.689866029018298636e-04 3.207338923858507185e-28
7.196856730011521675e-04 2.831979216740287886e-28
9.102981779915217267e-04 2.428075658536908811e-28
1.151395399326448146e-03 2.020312144583306118e-28
1.456348477501244378e-03 1.632482961145392921e-28
1.842069969326716331e-03 1.283087852394336786e-28
2.329951810515372077e-03 9.831314835276152857e-29
2.947051702551809708e-03 7.362614466396810377e-29
3.727593720314941773e-03 5.403037726492142003e-29
4.714866363457394238e-03 3.895103500595782779e-29
5.963623316594642357e-03 2.764644137570343013e-29
7.543120063354623143e-03 1.935763307575354738e-29
9.540954763499944619e-03 1.339158993137601708e-29
1.206792640639328847e-02 9.164525183084126432e-30
1.526417967175233356e-02 6.208903635788719235e-30
1.930697728883249559e-02 4.165738869832431639e-30
2.442053094548649744e-02 2.767373596844575780e-30
3.088843596477484910e-02 1.819091498086088608e-30
3.906939937054620948e-02 1.182066677763301718e-30
4.941713361323837872e-02 7.588100331682791989e-31
6.250551925273975518e-02 4.814842053628147276e-31
7.906043210907701124e-02 3.028498827298346283e-31
1.000000000000000056e-01 1.897232863334866555e-31
1.258925411794167282e-01 1.198690892452173480e-31
1.313310289679490150e-01 1.101702756532201177e-31
1.370044564053987113e-01 1.012559398407140190e-31
1.429229727539835237e-01 9.306098957856577138e-32
1.490971657184064214e-01 8.553098239233578384e-32
1.555380803863272154e-01 7.860726164535387635e-32
1.622572389870521326e-01 7.224555532733321113e-32
1.692666615037875799e-01 6.639671257866814285e-32
1.765788871763319112e-01 6.102327144814146890e-32
1.842069969326715906e-01 5.608178482550900745e-32
1.921646367896096275e-01 5.153970357437617956e-32
2.004660422642884077e-01 4.736588201664416433e-32
2.091260638402766547e-01 4.353157140062506546e-32
2.181601935337768583e-01 4.000478523749344239e-32
2.275845926074788750e-01 3.676605853517654865e-32
2.374161204816356840e-01 3.378825337449824037e-32
2.476723648940822031e-01 3.105056852713366633e-32
2.583716733631498119e-01 2.853605518099624548e-32
2.695331860097615051e-01 2.622398876214337185e-32
2.811768697974230680e-01 2.409974734080216927e-32
2.933235542513630834e-01 2.214739831940491303e-32
3.059949687207196289e-01 2.035314826237064546e-32
3.192137812504330929e-01 1.870386165072668037e-32
3.330036391323831224e-01 1.718811932114548371e-32
3.473892112083115657e-01 1.579547535824617835e-32
3.623962320002086512e-01 1.451581171285039316e-32
3.780515477471075858e-01 1.333905097435373526e-32
3.943831644306425854e-01 1.225811719377700652e-32
4.114202978752842244e-01 1.126475943872127748e-32
4.291934260128778544e-01 1.035174603635064901e-32
4.477343434049798621e-01 9.512835062668322634e-33
4.670762181205299624e-01 8.741850228720374843e-33
4.872536510706058088e-01 8.033497101759554420e-33
5.083027379064073425e-01 7.382131419317936194e-33
5.302611335911987522e-01 6.783854238730037656e-33
5.531681197617227541e-01 6.233799431772139422e-33
5.770646749995906877e-01 5.728598802670218247e-33
6.019935481383572595e-01 5.264184115440383947e-33
6.279993347374204227e-01 4.837535815683475202e-33
6.551285568595509590e-01 4.445260401655349197e-33
6.834297462947672708e-01 4.084955178847835537e-33
7.129535313794351792e-01 3.753719734227322104e-33
7.437527275659046033e-01 3.449442303726274564e-33
7.758824319047037399e-01 3.169753157935130270e-33
8.094001216083124284e-01 2.912832714849569583e-33
8.443657568728348828e-01 2.676639879514770638e-33
8.808418881415118751e-01 2.459608492256868319e-33
9.188937680019572118e-01 2.260230013522471883e-33
9.585894679172923816e-01 2.076967956306203058e-33
1.000000000000000000e+00 1.908608819097830249e-33
