# m_chi = 0.03 [GeV]; mS = 0.2 [GeV]; gchi =0.01; gN = 0.01
# Tchi [GeV], sigma [cm^2]
9.999999999999999547e-07 2.183910592427111398e-33
1.264855216855295881e-06 2.183899392694817979e-33
1.599858719606057360e-06 2.183900253148240937e-33
2.023589647725155726e-06 2.183926741380837925e-33
2.559547922699533382e-06 2.183942945600388955e-33
3.237457542817646685e-06 2.183946868838802476e-33
4.094915062380427237e-06 2.183979903967698858e-33
5.179474679231212330e-06 2.184026091040166856e-33
6.551285568595509496e-06 2.184055102505872727e-33
8.286427728546842542e-06 2.184106288354818555e-33
1.048113134154685250e-05 2.184159650209754228e-33
1.325711365590110898e-05 2.184251865170772767e-33
1.676832936811009972e-05 2.184358574132889851e-33
2.120950887920192640e-05 2.184470174136241111e-33
2.682695795279727390e-05 2.184616692118616123e-33
3.393221771895329857e-05 2.184838988720939697e-33
4.291934260128778017e-05 2.185094440168528784e-33
5.428675439323859403e-05 2.185427604341818899e-33
6.866488450042998925e-05 2.185823169792048775e-33
8.685113737513520580e-05 2.186345219637520999e-33
1.098541141987558346e-04 2.186995279671154675e-33
1.389495494373137348e-04 2.187835541922845848e-33
1.757510624854793067e-04 2.188870281269362298e-33
2.222996482526195465e-04 2.190202432656010172e-33
2.811768697974231118e-04 2.191878039011194526e-33
3.556480306223128661e-04 2.193945795172785314e-33
4.498432668969443876e-04 2.196587924171383358e-33
5.689866029018298636e-04 2.199890451435214732e-33
7.196856730011521675e-04 2.204065778500612930e-33
9.102981779915217267e-04 2.209269863062847637e-33
1.151395399326448146e-03 2.215725282842636349e-33
1.456348477501244378e-03 2.223732023962411808e-33
1.842069969326716331e-03 2.233618690843864622e-33
2.329951810515372077e-03 2.245688604886800813e-33
2.947051702551809708e-03 2.260295709801939520e-33
3.727593720314941773e-03 2.277557927246047577e-33
4.714866363457394238e-03 2.297528168279746665e-33
5.963623316594642357e-03 2.319633505371516737e-33
7.543120063354623143e-03 2.342399228983377635e-33
9.540954763499944619e-03 2.362611193090188144e-33
1.206792640639328847e-02 2.374315504617846398e-33
1.526417967175233356e-02 2.367180997535378676e-33
1.930697728883249559e-02 2.324962447501749970e-33
2.442053094548649744e-02 2.225467647899802702e-33
3.088843596477484910e-02 2.044642520172766542e-33
3.906939937054620948e-02 1.768825488867915640e-33
4.941713361323837872e-02 1.415496081309552249e-33
6.250551925273975518e-02 1.044668426592925478e-33
7.906043210907701124e-02 7.310842506006943070e-34
1.000000000000000056e-01 5.023461462923069372e-34
1.258925411794167282e-01 3.434515887080156702e-34
1.313310289679490150e-01 3.198583904991525765e-34
1.370044564053987113e-01 2.977947980117699193e-34
1.429229727539835237e-01 2.771298032883855756e-34
1.490971657184064214e-01 2.578081882159954900e-34
1.555380803863272154e-01 2.397614220560231116e-34
1.622572389870521326e-01 2.228754974925590675e-34
1.692666615037875799e-01 2.071162055353285114e-34
1.765788871763319112e-01 1.924034385887728034e-34
1.842069969326715906e-01 1.786694514088703521e-34
1.921646367896096275e-01 1.658664970287460869e-34
2.004660422642884077e-01 1.539335208465718725e-34
2.091260638402766547e-01 1.428025135971369769e-34
2.181601935337768583e-01 1.324502992400912699e-34
2.275845926074788750e-01 1.228033075637698308e-34
2.374161204816356840e-01 1.138261461106922300e-34
2.476723648940822031e-01 1.054762377535489840e-34
2.583716733631498119e-01 9.771275015583839256e-35
2.695331860097615051e-01 9.049207506784158423e-35
2.811768697974230680e-01 8.378278611088049261e-35
2.933235542513630834e-01 7.755422324301315508e-35
3.059949687207196289e-01 7.176781485777928819e-35
3.192137812504330929e-01 6.639863848647621067e-35
3.330036391323831224e-01 6.141523863456710684e-35
3.473892112083115657e-01 5.679143840250294511e-35
3.623962320002086512e-01 5.250746061499986618e-35
3.780515477471075858e-01 4.853391822025057657e-35
3.943831644306425854e-01 4.485250517142979077e-35
4.114202978752842244e-01 4.144092479813415883e-35
4.291934260128778544e-01 3.828117317063006475e-35
4.477343434049798621e-01 3.535512508052937118e-35
4.670762181205299624e-01 3.264898180642574441e-35
4.872536510706058088e-01 3.014175124531459492e-35
5.083027379064073425e-01 2.782317895863047395e-35
5.302611335911987522e-01 2.567926609707734476e-35
5.531681197617227541e-01 2.369704436366555022e-35
5.770646749995906877e-01 2.186287310742257010e-35
6.019935481383572595e-01 2.016892864456658127e-35
6.279993347374204227e-01 1.860253444645686801e-35
6.551285568595509590e-01 1.715580682732528969e-35
6.834297462947672708e-01 1.581943444847312364e-35
7.129535313794351792e-01 1.458496053425176470e-35
7.437527275659046033e-01 1.344541495369510670e-35
7.758824319047037399e-01 1.239308941078255598e-35
8.094001216083124284e-01 1.142246739135986960e-35
8.443657568728348828e-01 1.052577373003291124e-35
8.808418881415118751e-01 9.698717020231433496e-36
9.188937680019572118e-01 8.935235449815262388e-36
9.585894679172923816e-01 8.231542418215662454e-36
1.000000000000000000e+00 7.582645891529331791e-36
