# m_chi = 0.0033333333333333335 [GeV]; mS = 0.01 [GeV]; gchi =0.01; gN = 0.01
# Tchi [GeV], sigma [cm^2]
9.999999999999999547e-07 4.318343011859319988e-30
1.264855216855295881e-06 4.318342903527130845e-30
1.599858719606057360e-06 4.318369812279892032e-30
2.023589647725155726e-06 4.318489032235329056e-30
2.559547922699533382e-06 4.318497852625037399e-30
3.237457542817646685e-06 4.318639900198649955e-30
4.094915062380427237e-06 4.318765119609641723e-30
5.179474679231212330e-06 4.318862353217311384e-30
6.551285568595509496e-06 4.319086328365358694e-30
8.286427728546842542e-06 4.319284676612658557e-30
1.048113134154685250e-05 4.319620911473422046e-30
1.325711365590110898e-05 4.319964117404840509e-30
1.676832936811009972e-05 4.320439367906565960e-30
2.120950887920192640e-05 4.321057090982158022e-30
2.682695795279727390e-05 4.321720965604727271e-30
3.393221771895329857e-05 4.322690554832829178e-30
4.291934260128778017e-05 4.323790362282689521e-30
5.428675439323859403e-05 4.325247047191176757e-30
6.866488450042998925e-05 4.326945820979326441e-30
8.685113737513520580e-05 4.329081437874767418e-30
1.098541141987558346e-04 4.331627793060446272e-30
1.389495494373137348e-04 4.334680472389380812e-30
1.757510624854793067e-04 4.338218178873593169e-30
2.222996482526195465e-04 4.342173862028668432e-30
2.811768697974231118e-04 4.346434753745810533e-30
3.556480306223128661e-04 4.350605010787703137e-30
4.498432668969443876e-04 4.353968768194524238e-30
5.689866029018298636e-04 4.355289136171662907e-30
7.196856730011521675e-04 4.352601150643835274e-30
9.102981779915217267e-04 4.342561503657970391e-30
1.151395399326448146e-03 4.320303227729621893e-30
1.456348477501244378e-03 4.279005618936426840e-30
1.842069969326716331e-03 4.209307611060343336e-30
2.329951810515372077e-03 4.100210508037297199e-30
2.947051702551809708e-03 3.939990339472014286e-30
3.727593720314941773e-03 3.719047891845291835e-30
4.714866363457394238e-03 3.433457724627922252e-30
5.963623316594642357e-03 3.087780685960921641e-30
7.543120063354623143e-03 2.696187462074384157e-30
9.540954763499944619e-03 2.280942901788735434e-30
1.206792640639328847e-02 1.867483288546608292e-30
1.526417967175233356e-02 1.479413067130291409e-30
1.930697728883249559e-02 1.134251663966737443e-30
2.442053094548649744e-02 8.419159131172973318e-31
3.088843596477484910e-02 6.050725010969528785e-31
3.906939937054620948e-02 4.210667983956235279e-31
4.941713361323837872e-02 2.839577144294942802e-31
6.250551925273975518e-02 1.861896075968207236e-31
7.906043210907701124e-02 1.196070574751914696e-31
1.000000000000000056e-01 7.604775179650081022e-32
1.258925411794167282e-01 4.860737023578884937e-32
1.313310289679490150e-01 4.475882358977967717e-32
1.370044564053987113e-01 4.121029314774544980e-32
1.429229727539835237e-01 3.794080567814270103e-32
1.490971657184064214e-01 3.492844222806069189e-32
1.555380803863272154e-01 3.215243538709858134e-32
1.622572389870521326e-01 2.959588522445446649e-32
1.692666615037875799e-01 2.723934995680062698e-32
1.765788871763319112e-01 2.506887823288418735e-32
1.842069969326715906e-01 2.307066241510503247e-32
1.921646367896096275e-01 2.123042769013725951e-32
2.004660422642884077e-01 1.953557539811592089e-32
2.091260638402766547e-01 1.797479737880014642e-32
2.181601935337768583e-01 1.653836379923768991e-32
2.275845926074788750e-01 1.521551615883714354e-32
2.374161204816356840e-01 1.399805752847713431e-32
2.476723648940822031e-01 1.287724050175942946e-32
2.583716733631498119e-01 1.184564806352933458e-32
2.695331860097615051e-01 1.089606663552135163e-32
2.811768697974230680e-01 1.002267671326470162e-32
2.933235542513630834e-01 9.218535258714808940e-33
3.059949687207196289e-01 8.478596459428974071e-33
3.192137812504330929e-01 7.797791565497714195e-33
3.330036391323831224e-01 7.171450882928999398e-33
3.473892112083115657e-01 6.595023282298701627e-33
3.623962320002086512e-01 6.065077102703552625e-33
3.780515477471075858e-01 5.577205613941957827e-33
3.943831644306425854e-01 5.128593888921465721e-33
4.114202978752842244e-01 4.715801534792247045e-33
4.291934260128778544e-01 4.336333760197622348e-33
4.477343434049798621e-01 3.987061826392684093e-33
4.670762181205299624e-01 3.665928249098186022e-33
4.872536510706058088e-01 3.370573480848130175e-33
5.083027379064073425e-01 3.098936956581475056e-33
5.302611335911987522e-01 2.849116580434768962e-33
5.531681197617227541e-01 2.619393377434276584e-33
5.770646749995906877e-01 2.408135030091818564e-33
6.019935481383572595e-01 2.213797117413802509e-33
6.279993347374204227e-01 2.035190663787841840e-33
6.551285568595509590e-01 1.870939010120565347e-33
6.834297462947672708e-01 1.719927604029828354e-33
7.129535313794351792e-01 1.581064968056315621e-33
7.437527275659046033e-01 1.453400603165608872e-33
7.758824319047037399e-01 1.335993404431196257e-33
8.094001216083124284e-01 1.228064591889756017e-33
8.443657568728348828e-01 1.128836047943174564e-33
8.808418881415118751e-01 1.037650244283426524e-33
9.188937680019572118e-01 9.537592152974037636e-34
9.585894679172923816e-01 8.766725535126046142e-34
1.000000000000000000e+00 8.058009332295334745e-34
