# m_chi = 0.0001 [GeV]; mS = 0.3 [GeV]; gchi =0.01; gN = 0.01
# Tchi [GeV], sigma [cm^2]
9.999999999999999547e-07 4.846762755358544881e-39
1.264855216855295881e-06 4.859642367697560032e-39
1.599858719606057360e-06 4.875896329976079208e-39
2.023589647725155726e-06 4.896660601952492561e-39
2.559547922699533382e-06 4.922981056840866599e-39
3.237457542817646685e-06 4.956424484184583181e-39
4.094915062380427237e-06 4.999057347043179611e-39
5.179474679231212330e-06 5.053524747374538020e-39
6.551285568595509496e-06 5.123290544213496243e-39
8.286427728546842542e-06 5.212659488970902471e-39
1.048113134154685250e-05 5.327813641089353205e-39
1.325711365590110898e-05 5.476887635030192008e-39
1.676832936811009972e-05 5.670617453027334440e-39
2.120950887920192640e-05 5.924192310371996178e-39
2.682695795279727390e-05 6.258467583324219429e-39
3.393221771895329857e-05 6.703054306269166669e-39
4.291934260128778017e-05 7.299984386925356307e-39
5.428675439323859403e-05 8.110623066761965162e-39
6.866488450042998925e-05 9.224713974233616985e-39
8.685113737513520580e-05 1.077593766618926123e-38
1.098541141987558346e-04 1.296518825148787836e-38
1.389495494373137348e-04 1.609808234091381816e-38
1.757510624854793067e-04 2.064262385580837775e-38
2.222996482526195465e-04 2.732072385801696076e-38
2.811768697974231118e-04 3.725737502135680087e-38
3.556480306223128661e-04 5.220672156280747510e-38
4.498432668969443876e-04 7.492535728975773457e-38
5.689866029018298636e-04 1.097553705545704932e-37
7.196856730011521675e-04 1.635551613786168096e-37
9.102981779915217267e-04 2.471813916529486037e-37
1.151395399326448146e-03 3.778763546575813530e-37
1.456348477501244378e-03 5.829707355933187455e-37
1.842069969326716331e-03 9.059168651646050049e-37
2.329951810515372077e-03 1.415721283452440577e-36
2.947051702551809708e-03 2.221810538969993020e-36
3.727593720314941773e-03 3.497292746236093106e-36
4.714866363457394238e-03 5.514772566887246326e-36
5.963623316594642357e-03 8.699846293922099391e-36
7.543120063354623143e-03 1.370847071538466495e-35
9.540954763499944619e-03 2.152826013087028477e-35
1.206792640639328847e-02 3.358893208008173423e-35
1.526417967175233356e-02 5.181681893997587832e-35
1.930697728883249559e-02 7.845627510851183680e-35
2.442053094548649744e-02 1.152545689061003481e-34
3.088843596477484910e-02 1.613622786475506193e-34
3.906939937054620948e-02 2.094948060769594231e-34
4.941713361323837872e-02 2.423022083784929450e-34
6.250551925273975518e-02 2.367806867314551576e-34
7.906043210907701124e-02 1.864575516526527560e-34
1.000000000000000056e-01 1.219113056731471049e-34
1.258925411794167282e-01 7.694972278787647685e-35
1.313310289679490150e-01 7.071373005611554037e-35
1.370044564053987113e-01 6.498296805934471132e-35
1.429229727539835237e-01 5.971660519573110163e-35
1.490971657184064214e-01 5.487578021903081638e-35
1.555380803863272154e-01 5.042881059688078161e-35
1.622572389870521326e-01 4.633983082038679817e-35
1.692666615037875799e-01 4.258453818714448918e-35
1.765788871763319112e-01 3.913091990286675546e-35
1.842069969326715906e-01 3.595945097764990366e-35
1.921646367896096275e-01 3.304449718580295846e-35
2.004660422642884077e-01 3.036603086422770473e-35
2.091260638402766547e-01 2.790396285180835471e-35
2.181601935337768583e-01 2.564171965603586539e-35
2.275845926074788750e-01 2.356289926439847825e-35
2.374161204816356840e-01 2.165275458280400540e-35
2.476723648940822031e-01 1.989698474389214048e-35
2.583716733631498119e-01 1.828396968073048589e-35
2.695331860097615051e-01 1.680145493484041446e-35
2.811768697974230680e-01 1.543958929261662260e-35
2.933235542513630834e-01 1.418798623587038833e-35
3.059949687207196289e-01 1.303733261158241853e-35
3.192137812504330929e-01 1.197998571770451211e-35
3.330036391323831224e-01 1.100858751796806335e-35
3.473892112083115657e-01 1.011620004869867559e-35
3.623962320002086512e-01 9.295916372123631176e-36
3.780515477471075858e-01 8.542237030564568535e-36
3.943831644306425854e-01 7.849707130519459630e-36
4.114202978752842244e-01 7.213118513740913035e-36
4.291934260128778544e-01 6.628177273825612608e-36
4.477343434049798621e-01 6.090697305645516896e-36
4.670762181205299624e-01 5.596750126682596909e-36
4.872536510706058088e-01 5.142984930745546367e-36
5.083027379064073425e-01 4.725963252708319505e-36
5.302611335911987522e-01 4.342626679255393335e-36
5.531681197617227541e-01 3.990583994865904988e-36
5.770646749995906877e-01 3.666941270797452887e-36
6.019935481383572595e-01 3.369533988739253955e-36
6.279993347374204227e-01 3.096304057338396085e-36
6.551285568595509590e-01 2.845254633978798926e-36
6.834297462947672708e-01 2.614472175286868148e-36
7.129535313794351792e-01 2.402423834342380716e-36
7.437527275659046033e-01 2.207628495583992344e-36
7.758824319047037399e-01 2.028632158836344228e-36
8.094001216083124284e-01 1.864043286922365567e-36
8.443657568728348828e-01 1.712941523698432059e-36
8.808418881415118751e-01 1.574007136730896048e-36
9.188937680019572118e-01 1.446350492108202823e-36
9.585894679172923816e-01 1.329088457620469907e-36
1.000000000000000000e+00 1.221269266210945385e-36
