# m_chi = 0.02666666666666667 [GeV]; mS = 0.08 [GeV]; gchi =0.01; gN = 0.01
# Tchi [GeV], sigma [cm^2]
9.999999999999999547e-07 6.741113838835968241e-32
1.264855216855295881e-06 6.741041884102832769e-32
1.599858719606057360e-06 6.741009112311886390e-32
2.023589647725155726e-06 6.741074273876759846e-32
2.559547922699533382e-06 6.741050764905630982e-32
3.237457542817646685e-06 6.741029416705828907e-32
4.094915062380427237e-06 6.740990741929807699e-32
5.179474679231212330e-06 6.740906027054603240e-32
6.551285568595509496e-06 6.740731277362523508e-32
8.286427728546842542e-06 6.740697350114247444e-32
1.048113134154685250e-05 6.740529539454738705e-32
1.325711365590110898e-05 6.740374387806778793e-32
1.676832936811009972e-05 6.740169272704032092e-32
2.120950887920192640e-05 6.739965820803263624e-32
2.682695795279727390e-05 6.739667861537539583e-32
3.393221771895329857e-05 6.739226505117181393e-32
4.291934260128778017e-05 6.738751944054824563e-32
5.428675439323859403e-05 6.738103987206480650e-32
6.866488450042998925e-05 6.737300291720039772e-32
8.685113737513520580e-05 6.736202277117381435e-32
1.098541141987558346e-04 6.734869521944895927e-32
1.389495494373137348e-04 6.733150165032363465e-32
1.757510624854793067e-04 6.731029926517196884e-32
2.222996482526195465e-04 6.728341098448717438e-32
2.811768697974231118e-04 6.724801711245145796e-32
3.556480306223128661e-04 6.720407500744565739e-32
4.498432668969443876e-04 6.714730302034270898e-32
5.689866029018298636e-04 6.707401414476805611e-32
7.196856730011521675e-04 6.698008072832740578e-32
9.102981779915217267e-04 6.685804488720405439e-32
1.151395399326448146e-03 6.669792206601638377e-32
1.456348477501244378e-03 6.649025316790226024e-32
1.842069969326716331e-03 6.621611918279783694e-32
2.329951810515372077e-03 6.585150359783714515e-32
2.947051702551809708e-03 6.536523541289005676e-32
3.727593720314941773e-03 6.471015500611783774e-32
4.714866363457394238e-03 6.382525438597943429e-32
5.963623316594642357e-03 6.262390609649634948e-32
7.543120063354623143e-03 6.098949583469342214e-32
9.540954763499944619e-03 5.878178628414380037e-32
1.206792640639328847e-02 5.582706119317450928e-32
1.526417967175233356e-02 5.195811043654946083e-32
1.930697728883249559e-02 4.704695709684624363e-32
2.442053094548649744e-02 4.109163457916653035e-32
3.088843596477484910e-02 3.430204042379373313e-32
3.906939937054620948e-02 2.715804628667886414e-32
4.941713361323837872e-02 2.034541699001285905e-32
6.250551925273975518e-02 1.453379416851611032e-32
7.906043210907701124e-02 1.007531052542785920e-32
1.000000000000000056e-01 6.877805993740436656e-33
1.258925411794167282e-01 4.673942502904922703e-33
1.313310289679490150e-01 4.348343576448970082e-33
1.370044564053987113e-01 4.044076531175535231e-33
1.429229727539835237e-01 3.759695786906934332e-33
1.490971657184064214e-01 3.494175279096598236e-33
1.555380803863272154e-01 3.246117392195541743e-33
1.622572389870521326e-01 3.014711174628306814e-33
1.692666615037875799e-01 2.798859315236611866e-33
1.765788871763319112e-01 2.597651992735698096e-33
1.842069969326715906e-01 2.410152652157094337e-33
1.921646367896096275e-01 2.235453377147335658e-33
2.004660422642884077e-01 2.072774240268750007e-33
2.091260638402766547e-01 1.921383610001167968e-33
2.181601935337768583e-01 1.780531852457969785e-33
2.275845926074788750e-01 1.649498665572944601e-33
2.374161204816356840e-01 1.527721567895769298e-33
2.476723648940822031e-01 1.414571913435280693e-33
2.583716733631498119e-01 1.309427262509489203e-33
2.695331860097615051e-01 1.211832528589805527e-33
2.811768697974230680e-01 1.121219327852674689e-33
2.933235542513630834e-01 1.037154357241626782e-33
3.059949687207196289e-01 9.591078219067042159e-34
3.192137812504330929e-01 8.868072974221611340e-34
3.330036391323831224e-01 8.197224786305247496e-34
3.473892112083115657e-01 7.575795240944394677e-34
3.623962320002086512e-01 6.999655606811341213e-34
3.780515477471075858e-01 6.466494610394864589e-34
3.943831644306425854e-01 5.972575799436311024e-34
4.114202978752842244e-01 5.515357747345600152e-34
4.291934260128778544e-01 5.092185146111163627e-34
4.477343434049798621e-01 4.700584171460457954e-34
4.670762181205299624e-01 4.338670871692779122e-34
4.872536510706058088e-01 4.003692242332919675e-34
5.083027379064073425e-01 3.694110006485877165e-34
5.302611335911987522e-01 3.407840692535879243e-34
5.531681197617227541e-01 3.143349666596587635e-34
5.770646749995906877e-01 2.898962242190917357e-34
6.019935481383572595e-01 2.673240976117414971e-34
6.279993347374204227e-01 2.464724087807483829e-34
6.551285568595509590e-01 2.272159581915756187e-34
6.834297462947672708e-01 2.094441356362930894e-34
7.129535313794351792e-01 1.930391606557961665e-34
7.437527275659046033e-01 1.778910366801192338e-34
7.758824319047037399e-01 1.639150817710469377e-34
8.094001216083124284e-01 1.510216702123101744e-34
8.443657568728348828e-01 1.391333582075658433e-34
8.808418881415118751e-01 1.281629084172958026e-34
9.188937680019572118e-01 1.180458625250385186e-34
9.585894679172923816e-01 1.087195218478407907e-34
1.000000000000000000e+00 1.001204579366251624e-34
