# m_chi = 0.15 [GeV]; mS = 0.3 [GeV]; gchi =0.01; gN = 0.01
# Tchi [GeV], sigma [cm^2]
9.999999999999999547e-07 1.073469424601956867e-32
1.264855216855295881e-06 1.073449093791356159e-32
1.599858719606057360e-06 1.073403081384618106e-32
2.023589647725155726e-06 1.073371721616551132e-32
2.559547922699533382e-06 1.073334379732295518e-32
3.237457542817646685e-06 1.073270590356589268e-32
4.094915062380427237e-06 1.073224992966942204e-32
5.179474679231212330e-06 1.073113031160720326e-32
6.551285568595509496e-06 1.073002154436690553e-32
8.286427728546842542e-06 1.072855635835089345e-32
1.048113134154685250e-05 1.072671619393200331e-32
1.325711365590110898e-05 1.072450540820886119e-32
1.676832936811009972e-05 1.072176134468620091e-32
2.120950887920192640e-05 1.071794291151826018e-32
2.682695795279727390e-05 1.071334821754458959e-32
3.393221771895329857e-05 1.070750201236435039e-32
4.291934260128778017e-05 1.070009575910187030e-32
5.428675439323859403e-05 1.069085034614794374e-32
6.866488450042998925e-05 1.067892842604843242e-32
8.685113737513520580e-05 1.066408271390295399e-32
1.098541141987558346e-04 1.064511855297106260e-32
1.389495494373137348e-04 1.062135410176770738e-32
1.757510624854793067e-04 1.059154668391907268e-32
2.222996482526195465e-04 1.055359703386553507e-32
2.811768697974231118e-04 1.050612866052373732e-32
3.556480306223128661e-04 1.044633224883229068e-32
4.498432668969443876e-04 1.037125601124807028e-32
5.689866029018298636e-04 1.027709023145657746e-32
7.196856730011521675e-04 1.015964185744349930e-32
9.102981779915217267e-04 1.001308351391473634e-32
1.151395399326448146e-03 9.831326324636834758e-33
1.456348477501244378e-03 9.606971472383249274e-33
1.842069969326716331e-03 9.331714336790117803e-33
2.329951810515372077e-03 8.996655472395633348e-33
2.947051702551809708e-03 8.593229796513198968e-33
3.727593720314941773e-03 8.113502491876225212e-33
4.714866363457394238e-03 7.552307034277014336e-33
5.963623316594642357e-03 6.909365255850339409e-33
7.543120063354623143e-03 6.191493837732494186e-33
9.540954763499944619e-03 5.415592399924343479e-33
1.206792640639328847e-02 4.609867263606524766e-33
1.526417967175233356e-02 3.812917404711576456e-33
1.930697728883249559e-02 3.068462509646379412e-33
2.442053094548649744e-02 2.415204798272190156e-33
3.088843596477484910e-02 1.875357348149772398e-33
3.906939937054620948e-02 1.446857747001467812e-33
4.941713361323837872e-02 1.109989801494189593e-33
6.250551925273975518e-02 8.459010228011353456e-34
7.906043210907701124e-02 6.395619329138945672e-34
1.000000000000000056e-01 4.791809299429353851e-34
1.258925411794167282e-01 3.574814680536552413e-34
1.313310289679490150e-01 3.383619546910878549e-34
1.370044564053987113e-01 3.201362633842461538e-34
1.429229727539835237e-01 3.027743015191622995e-34
1.490971657184064214e-01 2.862464630185050026e-34
1.555380803863272154e-01 2.705190058542285413e-34
1.622572389870521326e-01 2.555419307611041471e-34
1.692666615037875799e-01 2.413040561294841513e-34
1.765788871763319112e-01 2.277617584445584730e-34
1.842069969326715906e-01 2.148892284469121174e-34
1.921646367896096275e-01 2.026562032847235760e-34
2.004660422642884077e-01 1.910516254326169827e-34
2.091260638402766547e-01 1.800215040938605678e-34
2.181601935337768583e-01 1.695622156146062911e-34
2.275845926074788750e-01 1.596298509375424439e-34
2.374161204816356840e-01 1.502232722206388082e-34
2.476723648940822031e-01 1.413035296256784357e-34
2.583716733631498119e-01 1.328595538751318242e-34
2.695331860097615051e-01 1.248577857369485369e-34
2.811768697974230680e-01 1.172921879596267416e-34
2.933235542513630834e-01 1.101333305836663233e-34
3.059949687207196289e-01 1.033624001300437939e-34
3.192137812504330929e-01 9.696811024771621200e-35
3.330036391323831224e-01 9.092701496770013610e-35
3.473892112083115657e-01 8.522440074713764046e-35
3.623962320002086512e-01 7.984456420104294208e-35
3.780515477471075858e-01 7.477228517516260325e-35
3.943831644306425854e-01 6.999016964192829570e-35
4.114202978752842244e-01 6.548427639504984820e-35
4.291934260128778544e-01 6.124269726087298569e-35
4.477343434049798621e-01 5.725262748770196963e-35
4.670762181205299624e-01 5.349705776266271852e-35
4.872536510706058088e-01 4.996724726826531486e-35
5.083027379064073425e-01 4.665100590627888894e-35
5.302611335911987522e-01 4.353580403504262938e-35
5.531681197617227541e-01 4.061332526378937437e-35
5.770646749995906877e-01 3.787007529522934047e-35
6.019935481383572595e-01 3.529831563238033084e-35
6.279993347374204227e-01 3.288864813552287740e-35
6.551285568595509590e-01 3.063127539160598757e-35
6.834297462947672708e-01 2.851735873617367523e-35
7.129535313794351792e-01 2.654025297061922101e-35
7.437527275659046033e-01 2.469038023954360840e-35
7.758824319047037399e-01 2.296100550494594572e-35
8.094001216083124284e-01 2.134620871392137256e-35
8.443657568728348828e-01 1.983689042344397805e-35
8.808418881415118751e-01 1.842747835579262437e-35
9.188937680019572118e-01 1.711272854568287889e-35
9.585894679172923816e-01 1.588685347528376728e-35
1.000000000000000000e+00 1.474395243048189716e-35
