# m_chi = 0.01 [GeV]; mS = 0.3 [GeV]; gchi =0.01; gN = 0.01
# Tchi [GeV], sigma [cm^2]
9.999999999999999547e-07 4.797235320034260220e-35
1.264855216855295881e-06 4.797356276278258196e-35
1.599858719606057360e-06 4.797461538149160791e-35
2.023589647725155726e-06 4.797682291175027002e-35
2.559547922699533382e-06 4.797888729233469480e-35
3.237457542817646685e-06 4.798217621108816841e-35
4.094915062380427237e-06 4.798605914886887469e-35
5.179474679231212330e-06 4.799086986454864033e-35
6.551285568595509496e-06 4.799693800386269236e-35
8.286427728546842542e-06 4.800513009522016951e-35
1.048113134154685250e-05 4.801459630945115217e-35
1.325711365590110898e-05 4.802751836087906608e-35
1.676832936811009972e-05 4.804361472920104690e-35
2.120950887920192640e-05 4.806296469180756020e-35
2.682695795279727390e-05 4.808933541415072420e-35
3.393221771895329857e-05 4.812115008314692347e-35
4.291934260128778017e-05 4.816201127436668237e-35
5.428675439323859403e-05 4.821456629897968894e-35
6.866488450042998925e-05 4.827895870488478141e-35
8.685113737513520580e-05 4.836258450281319820e-35
1.098541141987558346e-04 4.846692628185973392e-35
1.389495494373137348e-04 4.859989325592673609e-35
1.757510624854793067e-04 4.876895163216096416e-35
2.222996482526195465e-04 4.898312896466003860e-35
2.811768697974231118e-04 4.925521866199578453e-35
3.556480306223128661e-04 4.960066529238241249e-35
4.498432668969443876e-04 5.004099982390579911e-35
5.689866029018298636e-04 5.060324591981963865e-35
7.196856730011521675e-04 5.132181814502134003e-35
9.102981779915217267e-04 5.224224210597186087e-35
1.151395399326448146e-03 5.342504012479271188e-35
1.456348477501244378e-03 5.495143557051181752e-35
1.842069969326716331e-03 5.692860433317554074e-35
2.329951810515372077e-03 5.950249703650773269e-35
2.947051702551809708e-03 6.287146585130107331e-35
3.727593720314941773e-03 6.730290742929151157e-35
4.714866363457394238e-03 7.316739380868708291e-35
5.963623316594642357e-03 8.096103634592019700e-35
7.543120063354623143e-03 9.134307753786323228e-35
9.540954763499944619e-03 1.051565026808722325e-34
1.206792640639328847e-02 1.233820121247021016e-34
1.526417967175233356e-02 1.469532524860669784e-34
1.930697728883249559e-02 1.762525011120487043e-34
2.442053094548649744e-02 2.100009407758942615e-34
3.088843596477484910e-02 2.434257277195309199e-34
3.906939937054620948e-02 2.663338167313259484e-34
4.941713361323837872e-02 2.640629985015847921e-34
6.250551925273975518e-02 2.266675866977343379e-34
7.906043210907701124e-02 1.649110911634096933e-34
1.000000000000000056e-01 1.084391784592242921e-34
1.258925411794167282e-01 7.084946430975143633e-35
1.313310289679490150e-01 6.547549675716158096e-35
1.370044564053987113e-01 6.049546815392830915e-35
1.429229727539835237e-01 5.588311004908416855e-35
1.490971657184064214e-01 5.161293946124095213e-35
1.555380803863272154e-01 4.766090613213713801e-35
1.622572389870521326e-01 4.400275392298544472e-35
1.692666615037875799e-01 4.061751238498263165e-35
1.765788871763319112e-01 3.748668082950236189e-35
1.842069969326715906e-01 3.459303620313865918e-35
1.921646367896096275e-01 3.191619538697090765e-35
2.004660422642884077e-01 2.944256948822631285e-35
2.091260638402766547e-01 2.715712616205284518e-35
2.181601935337768583e-01 2.504522981283373709e-35
2.275845926074788750e-01 2.309334820976281331e-35
2.374161204816356840e-01 2.129209498564010752e-35
2.476723648940822031e-01 1.962875943653905096e-35
2.583716733631498119e-01 1.809267679225455416e-35
2.695331860097615051e-01 1.667474813124153562e-35
2.811768697974230680e-01 1.536636133391489635e-35
2.933235542513630834e-01 1.415880883699257806e-35
3.059949687207196289e-01 1.304500532989357313e-35
3.192137812504330929e-01 1.201716606431560889e-35
3.330036391323831224e-01 1.106984641756369262e-35
3.473892112083115657e-01 1.019583630472643853e-35
3.623962320002086512e-01 9.389915796258548560e-36
3.780515477471075858e-01 8.647567774371570233e-36
3.943831644306425854e-01 7.962450625564806912e-36
4.114202978752842244e-01 7.331270116176937416e-36
4.291934260128778544e-01 6.749640504603206695e-36
4.477343434049798621e-01 6.213702447840853833e-36
4.670762181205299624e-01 5.719821914300832179e-36
4.872536510706058088e-01 5.264948259442944996e-36
5.083027379064073425e-01 4.845782676823134941e-36
5.302611335911987522e-01 4.459791201023279209e-36
5.531681197617227541e-01 4.104262778008931819e-36
5.770646749995906877e-01 3.776795933476172545e-36
6.019935481383572595e-01 3.475290714691270607e-36
6.279993347374204227e-01 3.197769196468388778e-36
6.551285568595509590e-01 2.942139767803101059e-36
6.834297462947672708e-01 2.706830163262903476e-36
7.129535313794351792e-01 2.490122604729832694e-36
7.437527275659046033e-01 2.290793030292797369e-36
7.758824319047037399e-01 2.107273567381994991e-36
8.094001216083124284e-01 1.938388712046069586e-36
8.443657568728348828e-01 1.782923723185409130e-36
8.808418881415118751e-01 1.639951429783180744e-36
9.188937680019572118e-01 1.508289060153779927e-36
9.585894679172923816e-01 1.387155925194735141e-36
1.000000000000000000e+00 1.275766174383188600e-36
