# m_chi = 0.02 [GeV]; mS = 0.06 [GeV]; gchi =0.01; gN = 0.01
# Tchi [GeV], sigma [cm^2]
9.999999999999999547e-07 1.198732281187174606e-31
1.264855216855295881e-06 1.198733282173458242e-31
1.599858719606057360e-06 1.198733338708182453e-31
2.023589647725155726e-06 1.198726800069301957e-31
2.559547922699533382e-06 1.198724367866778139e-31
3.237457542817646685e-06 1.198724704404818465e-31
4.094915062380427237e-06 1.198724744972400468e-31
5.179474679231212330e-06 1.198709007466527642e-31
6.551285568595509496e-06 1.198700390067670970e-31
8.286427728546842542e-06 1.198704376213174795e-31
1.048113134154685250e-05 1.198684833696189100e-31
1.325711365590110898e-05 1.198679198433325624e-31
1.676832936811009972e-05 1.198650528945709229e-31
2.120950887920192640e-05 1.198648397953308011e-31
2.682695795279727390e-05 1.198612131667641880e-31
3.393221771895329857e-05 1.198565130052261133e-31
4.291934260128778017e-05 1.198526511306242923e-31
5.428675439323859403e-05 1.198485688751539639e-31
6.866488450042998925e-05 1.198409459193309253e-31
8.685113737513520580e-05 1.198308194576317181e-31
1.098541141987558346e-04 1.198184175525469630e-31
1.389495494373137348e-04 1.198057173674776435e-31
1.757510624854793067e-04 1.197870986793704614e-31
2.222996482526195465e-04 1.197635980975273392e-31
2.811768697974231118e-04 1.197310090395972671e-31
3.556480306223128661e-04 1.196899610740660611e-31
4.498432668969443876e-04 1.196367124206252085e-31
5.689866029018298636e-04 1.195657591339746774e-31
7.196856730011521675e-04 1.194700749967627300e-31
9.102981779915217267e-04 1.193412583963893770e-31
1.151395399326448146e-03 1.191646040228852900e-31
1.456348477501244378e-03 1.189232994647115467e-31
1.842069969326716331e-03 1.185842901953093278e-31
2.329951810515372077e-03 1.181073631945068132e-31
2.947051702551809708e-03 1.174321772382172035e-31
3.727593720314941773e-03 1.164660463019919706e-31
4.714866363457394238e-03 1.150796675511359815e-31
5.963623316594642357e-03 1.130959822272417485e-31
7.543120063354623143e-03 1.102736612362771125e-31
9.540954763499944619e-03 1.063118320637837291e-31
1.206792640639328847e-02 1.008708527149549026e-31
1.526417967175233356e-02 9.362802095796158088e-32
1.930697728883249559e-02 8.438928343262591628e-32
2.442053094548649744e-02 7.323802716649919913e-32
3.088843596477484910e-02 6.066990911949873514e-32
3.906939937054620948e-02 4.763297122989593122e-32
4.941713361323837872e-02 3.535952410931552469e-32
6.250551925273975518e-02 2.498102135761950374e-32
7.906043210907701124e-02 1.707492012761384755e-32
1.000000000000000056e-01 1.148036154355995898e-32
1.258925411794167282e-01 7.695632988077693537e-33
1.313310289679490150e-01 7.143102209018218591e-33
1.370044564053987113e-01 6.627894256151582025e-33
1.429229727539835237e-01 6.147782028754863438e-33
1.490971657184064214e-01 5.700581629463283251e-33
1.555380803863272154e-01 5.284662640460774736e-33
1.622572389870521326e-01 4.897417855133349495e-33
1.692666615037875799e-01 4.537571328471022716e-33
1.765788871763319112e-01 4.202736660722564880e-33
1.842069969326715906e-01 3.891575200354218563e-33
1.921646367896096275e-01 3.602621564379189273e-33
2.004660422642884077e-01 3.334150513135154884e-33
2.091260638402766547e-01 3.085058540625585441e-33
2.181601935337768583e-01 2.853832372469113793e-33
2.275845926074788750e-01 2.639196738221176962e-33
2.374161204816356840e-01 2.440370108942954889e-33
2.476723648940822031e-01 2.255790310866374968e-33
2.583716733631498119e-01 2.084929508022407875e-33
2.695331860097615051e-01 1.926447650349365877e-33
2.811768697974230680e-01 1.779723426700035796e-33
2.933235542513630834e-01 1.643878864441509816e-33
3.059949687207196289e-01 1.518105603939547230e-33
3.192137812504330929e-01 1.401683214945658274e-33
3.330036391323831224e-01 1.293965411511304088e-33
3.473892112083115657e-01 1.194321667250819319e-33
3.623962320002086512e-01 1.102160934760020717e-33
3.780515477471075858e-01 1.016947469969139942e-33
3.943831644306425854e-01 9.381761142926906869e-34
4.114202978752842244e-01 8.653845075158602036e-34
4.291934260128778544e-01 7.981248504747693676e-34
4.477343434049798621e-01 7.360024399768889173e-34
4.670762181205299624e-01 6.786173212332558599e-34
4.872536510706058088e-01 6.256107394366165740e-34
5.083027379064073425e-01 5.766875793246185718e-34
5.302611335911987522e-01 5.315071358812856141e-34
5.531681197617227541e-01 4.898368023190305689e-34
5.770646749995906877e-01 4.513654880148867345e-34
6.019935481383572595e-01 4.158658059002738847e-34
6.279993347374204227e-01 3.831414471539981259e-34
6.551285568595509590e-01 3.529292929222629342e-34
6.834297462947672708e-01 3.250823721401392668e-34
7.129535313794351792e-01 2.994055909326687629e-34
7.437527275659046033e-01 2.757256742593662297e-34
7.758824319047037399e-01 2.538999604922403345e-34
8.094001216083124284e-01 2.337769875541814139e-34
8.443657568728348828e-01 2.152356146205010423e-34
8.808418881415118751e-01 1.981530541981952899e-34
9.188937680019572118e-01 1.824101743967940795e-34
9.585894679172923816e-01 1.679032393519683392e-34
1.000000000000000000e+00 1.545432211366092048e-34
