# m_chi = 0.03 [GeV]; mS = 0.3 [GeV]; gchi =0.01; gN = 0.01
# Tchi [GeV], sigma [cm^2]
9.999999999999999547e-07 4.313835754767077391e-34
1.264855216855295881e-06 4.313904289928538398e-34
1.599858719606057360e-06 4.313927116475889844e-34
2.023589647725155726e-06 4.313919784185609574e-34
2.559547922699533382e-06 4.314044576097544638e-34
3.237457542817646685e-06 4.314013642991574047e-34
4.094915062380427237e-06 4.314067540245957290e-34
5.179474679231212330e-06 4.314204716362583054e-34
6.551285568595509496e-06 4.314255775779934295e-34
8.286427728546842542e-06 4.314338154863276362e-34
1.048113134154685250e-05 4.314539471398843906e-34
1.325711365590110898e-05 4.314755872528178318e-34
1.676832936811009972e-05 4.315028628582541529e-34
2.120950887920192640e-05 4.315295138473299394e-34
2.682695795279727390e-05 4.315700008654134010e-34
3.393221771895329857e-05 4.316170614825447368e-34
4.291934260128778017e-05 4.316801739201347509e-34
5.428675439323859403e-05 4.317683536656265078e-34
6.866488450042998925e-05 4.318672542733164522e-34
8.685113737513520580e-05 4.319998393220783594e-34
1.098541141987558346e-04 4.321585890399921849e-34
1.389495494373137348e-04 4.323659514778695010e-34
1.757510624854793067e-04 4.326290492766937182e-34
2.222996482526195465e-04 4.329519880159904492e-34
2.811768697974231118e-04 4.333661430795822151e-34
3.556480306223128661e-04 4.338889853220517594e-34
4.498432668969443876e-04 4.345484867340816654e-34
5.689866029018298636e-04 4.353846952380118571e-34
7.196856730011521675e-04 4.364255790317298169e-34
9.102981779915217267e-04 4.377394815275867893e-34
1.151395399326448146e-03 4.393875163489379065e-34
1.456348477501244378e-03 4.414483034079168932e-34
1.842069969326716331e-03 4.440123580531424099e-34
2.329951810515372077e-03 4.471998804652751850e-34
2.947051702551809708e-03 4.511096139360271119e-34
3.727593720314941773e-03 4.558709015098398678e-34
4.714866363457394238e-03 4.615930425600772113e-34
5.963623316594642357e-03 4.683191673823591796e-34
7.543120063354623143e-03 4.759196829526385868e-34
9.540954763499944619e-03 4.840248724111078483e-34
1.206792640639328847e-02 4.917035082028867233e-34
1.526417967175233356e-02 4.971425371304810476e-34
1.930697728883249559e-02 4.971325260377285478e-34
2.442053094548649744e-02 4.866691318169834791e-34
3.088843596477484910e-02 4.592290617603813969e-34
3.906939937054620948e-02 4.089512618886040010e-34
4.941713361323837872e-02 3.358225522607902662e-34
6.250551925273975518e-02 2.515118945263743264e-34
7.906043210907701124e-02 1.763950344062078869e-34
1.000000000000000056e-01 1.212090823393099488e-34
1.258925411794167282e-01 8.286989927089649045e-35
1.313310289679490150e-01 7.717954573975432962e-35
1.370044564053987113e-01 7.185267344598621722e-35
1.429229727539835237e-01 6.686759638500585056e-35
1.490971657184064214e-01 6.220582485254059565e-35
1.555380803863272154e-01 5.784915710193296304e-35
1.622572389870521326e-01 5.377646427193552926e-35
1.692666615037875799e-01 4.997391532308781120e-35
1.765788871763319112e-01 4.642340683225271540e-35
1.842069969326715906e-01 4.311000699481474119e-35
1.921646367896096275e-01 4.002156788027671259e-35
2.004660422642884077e-01 3.714105555347208475e-35
2.091260638402766547e-01 3.445822769479686295e-35
2.181601935337768583e-01 3.195766281730389249e-35
2.275845926074788750e-01 2.963116675528164398e-35
2.374161204816356840e-01 2.746526258140229321e-35
2.476723648940822031e-01 2.544981669504905814e-35
2.583716733631498119e-01 2.357568701211599804e-35
2.695331860097615051e-01 2.183375005253177379e-35
2.811768697974230680e-01 2.021627621393381032e-35
2.933235542513630834e-01 1.871253302160922113e-35
3.059949687207196289e-01 1.731700101049697846e-35
3.192137812504330929e-01 1.602096257473587379e-35
3.330036391323831224e-01 1.481867114734402078e-35
3.473892112083115657e-01 1.370315306442164293e-35
3.623962320002086512e-01 1.266920061074329707e-35
3.780515477471075858e-01 1.171064363265485621e-35
3.943831644306425854e-01 1.082201361776153029e-35
4.114202978752842244e-01 9.999122824935444226e-36
4.291934260128778544e-01 9.236571006056571334e-36
4.477343434049798621e-01 8.530775995691894333e-36
4.670762181205299624e-01 7.877588440238047703e-36
4.872536510706058088e-01 7.273074557979919095e-36
5.083027379064073425e-01 6.713424087099556898e-36
5.302611335911987522e-01 6.196039051182043993e-36
5.531681197617227541e-01 5.717570980589621980e-36
5.770646749995906877e-01 5.275153594028454904e-36
6.019935481383572595e-01 4.866390305032666125e-36
6.279993347374204227e-01 4.488512443170192167e-36
6.551285568595509590e-01 4.139555871049418757e-36
6.834297462947672708e-01 3.816976361699794608e-36
7.129535313794351792e-01 3.519138211646267572e-36
7.437527275659046033e-01 3.244094644770297127e-36
7.758824319047037399e-01 2.990241952465962759e-36
8.094001216083124284e-01 2.755924507496525785e-36
8.443657568728348828e-01 2.539642423366581669e-36
8.808418881415118751e-01 2.340150478046104329e-36
9.188937680019572118e-01 2.156003494762367000e-36
9.585894679172923816e-01 1.986102498226377658e-36
1.000000000000000000e+00 1.829547882945406377e-36
