# m_chi = 0.05 [GeV]; mS = 0.2 [GeV]; gchi =0.01; gN = 0.01
# Tchi [GeV], sigma [cm^2]
9.999999999999999547e-07 6.061500366836856879e-33
1.264855216855295881e-06 6.061637212738588645e-33
1.599858719606057360e-06 6.061499863946900257e-33
2.023589647725155726e-06 6.061493167135186878e-33
2.559547922699533382e-06 6.061420579087859921e-33
3.237457542817646685e-06 6.061392696842239985e-33
4.094915062380427237e-06 6.061360055657164665e-33
5.179474679231212330e-06 6.061259842200571158e-33
6.551285568595509496e-06 6.061131081628893884e-33
8.286427728546842542e-06 6.060978376103390275e-33
1.048113134154685250e-05 6.060798209831618674e-33
1.325711365590110898e-05 6.060576473577144929e-33
1.676832936811009972e-05 6.060300098427791232e-33
2.120950887920192640e-05 6.059978737796001081e-33
2.682695795279727390e-05 6.059467946847082029e-33
3.393221771895329857e-05 6.058874385910247040e-33
4.291934260128778017e-05 6.058173138096557486e-33
5.428675439323859403e-05 6.057158977565319291e-33
6.866488450042998925e-05 6.056040826868219524e-33
8.685113737513520580e-05 6.054522040566555307e-33
1.098541141987558346e-04 6.052697122073087257e-33
1.389495494373137348e-04 6.050208576373820597e-33
1.757510624854793067e-04 6.047143233935147934e-33
2.222996482526195465e-04 6.043292597964940113e-33
2.811768697974231118e-04 6.038449472466834088e-33
3.556480306223128661e-04 6.032236843963143111e-33
4.498432668969443876e-04 6.024344653649584502e-33
5.689866029018298636e-04 6.014347300649895835e-33
7.196856730011521675e-04 6.001579339884804989e-33
9.102981779915217267e-04 5.985524399292355024e-33
1.151395399326448146e-03 5.964750978667840859e-33
1.456348477501244378e-03 5.938447783340591837e-33
1.842069969326716331e-03 5.904660084774110141e-33
2.329951810515372077e-03 5.861343636738830615e-33
2.947051702551809708e-03 5.805561685756849205e-33
3.727593720314941773e-03 5.733693743365929605e-33
4.714866363457394238e-03 5.640585472734099173e-33
5.963623316594642357e-03 5.519685970152380202e-33
7.543120063354623143e-03 5.362694249736112901e-33
9.540954763499944619e-03 5.158959487611220001e-33
1.206792640639328847e-02 4.895850513107903401e-33
1.526417967175233356e-02 4.559838998757739995e-33
1.930697728883249559e-02 4.139506377716023906e-33
2.442053094548649744e-02 3.631324080759800931e-33
3.088843596477484910e-02 3.048956705759213822e-33
3.906939937054620948e-02 2.431761402171139378e-33
4.941713361323837872e-02 1.842957320702080435e-33
6.250551925273975518e-02 1.346004936165107107e-33
7.906043210907701124e-02 9.657832935316785689e-34
1.000000000000000056e-01 6.836056225268242923e-34
1.258925411794167282e-01 4.807527841233495661e-34
1.313310289679490150e-01 4.500138189931777607e-34
1.370044564053987113e-01 4.210396101016277988e-34
1.429229727539835237e-01 3.937884742722365625e-34
1.490971657184064214e-01 3.681145549418467788e-34
1.555380803863272154e-01 3.439759554915534299e-34
1.622572389870521326e-01 3.212874869955694979e-34
1.692666615037875799e-01 2.999734085446427976e-34
1.765788871763319112e-01 2.799453877504799481e-34
1.842069969326715906e-01 2.611469087154386563e-34
1.921646367896096275e-01 2.435155813415835288e-34
2.004660422642884077e-01 2.269820377665372699e-34
2.091260638402766547e-01 2.114873617613140260e-34
2.181601935337768583e-01 1.969805051563146238e-34
2.275845926074788750e-01 1.833901935345421160e-34
2.374161204816356840e-01 1.706682375248650301e-34
2.476723648940822031e-01 1.587712732350513336e-34
2.583716733631498119e-01 1.476594746850515665e-34
2.695331860097615051e-01 1.372653131987570910e-34
2.811768697974230680e-01 1.275656244010445086e-34
2.933235542513630834e-01 1.185080424300918431e-34
3.059949687207196289e-01 1.100506341675361216e-34
3.192137812504330929e-01 1.021661827680933557e-34
3.330036391323831224e-01 9.481771501274864431e-35
3.473892112083115657e-01 8.796873957652404249e-35
3.623962320002086512e-01 8.158827242107791602e-35
3.780515477471075858e-01 7.564952252870400975e-35
3.943831644306425854e-01 7.012150388677865777e-35
4.114202978752842244e-01 6.497870877864204628e-35
4.291934260128778544e-01 6.019413912950136886e-35
4.477343434049798621e-01 5.575002580110175453e-35
4.670762181205299624e-01 5.161687884516181894e-35
4.872536510706058088e-01 4.777968845891830399e-35
5.083027379064073425e-01 4.421643624790996964e-35
5.302611335911987522e-01 4.090924816813260762e-35
5.531681197617227541e-01 3.783967394759284460e-35
5.770646749995906877e-01 3.499299220813137948e-35
6.019935481383572595e-01 3.235200853257874637e-35
6.279993347374204227e-01 2.990416975408049921e-35
6.551285568595509590e-01 2.763623802081447977e-35
6.834297462947672708e-01 2.553506831730255518e-35
7.129535313794351792e-01 2.358906357708038347e-35
7.437527275659046033e-01 2.178655924550522110e-35
7.758824319047037399e-01 2.011857826427501120e-35
8.094001216083124284e-01 1.857426855838677382e-35
8.443657568728348828e-01 1.714554391480441446e-35
8.808418881415118751e-01 1.582484542226922359e-35
9.188937680019572118e-01 1.460271065866092062e-35
9.585894679172923816e-01 1.347334613228208670e-35
1.000000000000000000e+00 1.242898007217303508e-35
