# m_chi = 0.08 [GeV]; mS = 0.3 [GeV]; gchi =0.01; gN = 0.01
# Tchi [GeV], sigma [cm^2]
9.999999999999999547e-07 3.061680155655583164e-33
1.264855216855295881e-06 3.061621852905875599e-33
1.599858719606057360e-06 3.061599945968866297e-33
2.023589647725155726e-06 3.061546344434377038e-33
2.559547922699533382e-06 3.061514145422880587e-33
3.237457542817646685e-06 3.061478064489452552e-33
4.094915062380427237e-06 3.061348394684843506e-33
5.179474679231212330e-06 3.061243227400886026e-33
6.551285568595509496e-06 3.061099313417795579e-33
8.286427728546842542e-06 3.060935172597129372e-33
1.048113134154685250e-05 3.060735824395876872e-33
1.325711365590110898e-05 3.060479763998733253e-33
1.676832936811009972e-05 3.060122374257025260e-33
2.120950887920192640e-05 3.059675421901496628e-33
2.682695795279727390e-05 3.059118062351496638e-33
3.393221771895329857e-05 3.058433427972118620e-33
4.291934260128778017e-05 3.057521262145778077e-33
5.428675439323859403e-05 3.056439073281416989e-33
6.866488450042998925e-05 3.055004935267273294e-33
8.685113737513520580e-05 3.053201700379474941e-33
1.098541141987558346e-04 3.050956336884641919e-33
1.389495494373137348e-04 3.048070703858682376e-33
1.757510624854793067e-04 3.044452023647534198e-33
2.222996482526195465e-04 3.039851372098626880e-33
2.811768697974231118e-04 3.034085541590224192e-33
3.556480306223128661e-04 3.026803311947613953e-33
4.498432668969443876e-04 3.017551619689140220e-33
5.689866029018298636e-04 3.005922992748547164e-33
7.196856730011521675e-04 2.991232217348674807e-33
9.102981779915217267e-04 2.972724451394057730e-33
1.151395399326448146e-03 2.949449798986154645e-33
1.456348477501244378e-03 2.920079749869578209e-33
1.842069969326716331e-03 2.883325017220213239e-33
2.329951810515372077e-03 2.837174891347924333e-33
2.947051702551809708e-03 2.779562866112706609e-33
3.727593720314941773e-03 2.707855194086939852e-33
4.714866363457394238e-03 2.619039457462236972e-33
5.963623316594642357e-03 2.509768790842517669e-33
7.543120063354623143e-03 2.376666204827683828e-33
9.540954763499944619e-03 2.216485815740859054e-33
1.206792640639328847e-02 2.027125017989437200e-33
1.526417967175233356e-02 1.808771116280996926e-33
1.930697728883249559e-02 1.565427134418939479e-33
2.442053094548649744e-02 1.306691100307412349e-33
3.088843596477484910e-02 1.048565387027878097e-33
3.906939937054620948e-02 8.109930107331541060e-34
4.941713361323837872e-02 6.112916432126522390e-34
6.250551925273975518e-02 4.548542305355586015e-34
7.906043210907701124e-02 3.347008055692527779e-34
1.000000000000000056e-01 2.433067565622237628e-34
1.258925411794167282e-01 1.757666755682644424e-34
1.313310289679490150e-01 1.653396959581880455e-34
1.370044564053987113e-01 1.554678374790783472e-34
1.429229727539835237e-01 1.461145777036385325e-34
1.490971657184064214e-01 1.372662107599980174e-34
1.555380803863272154e-01 1.288976095752573761e-34
1.622572389870521326e-01 1.209776387413760660e-34
1.692666615037875799e-01 1.135044457698854412e-34
1.765788871763319112e-01 1.064423173285649741e-34
1.842069969326715906e-01 9.977219538615959100e-35
1.921646367896096275e-01 9.347409722661986040e-35
2.004660422642884077e-01 8.754387402006258734e-35
2.091260638402766547e-01 8.194767471818169202e-35
2.181601935337768583e-01 7.667906911233916635e-35
2.275845926074788750e-01 7.171773774526933957e-35
2.374161204816356840e-01 6.704570993699239408e-35
2.476723648940822031e-01 6.265379516626822086e-35
2.583716733631498119e-01 5.852163208906180131e-35
2.695331860097615051e-01 5.464189594175080775e-35
2.811768697974230680e-01 5.099624127404258978e-35
2.933235542513630834e-01 4.757532094123234505e-35
3.059949687207196289e-01 4.436422339090597437e-35
3.192137812504330929e-01 4.135325593635973447e-35
3.330036391323831224e-01 3.853296854571415724e-35
3.473892112083115657e-01 3.589054174402765589e-35
3.623962320002086512e-01 3.341553291839470551e-35
3.780515477471075858e-01 3.109951124803133819e-35
3.943831644306425854e-01 2.893294703385348822e-35
4.114202978752842244e-01 2.690800879654377813e-35
4.291934260128778544e-01 2.501596143153515806e-35
4.477343434049798621e-01 2.324892234840432488e-35
4.670762181205299624e-01 2.159834808285031534e-35
4.872536510706058088e-01 2.005823394919789289e-35
5.083027379064073425e-01 1.862257574306531563e-35
5.302611335911987522e-01 1.728337130214529823e-35
5.531681197617227541e-01 1.603541079863285728e-35
5.770646749995906877e-01 1.487287264625661586e-35
6.019935481383572595e-01 1.379021108016004965e-35
6.279993347374204227e-01 1.278351721754108633e-35
6.551285568595509590e-01 1.184595200236530395e-35
6.834297462947672708e-01 1.097450015285866256e-35
7.129535313794351792e-01 1.016424976910876963e-35
7.437527275659046033e-01 9.411503959829591682e-36
7.758824319047037399e-01 8.711976685185834993e-36
8.094001216083124284e-01 8.062330675727194027e-36
8.443657568728348828e-01 7.459453372277619102e-36
8.808418881415118751e-01 6.899903047056525194e-36
9.188937680019572118e-01 6.380901752849730646e-36
9.585894679172923816e-01 5.899668753487078321e-36
1.000000000000000000e+00 5.453440888022872053e-36
